id(T),xyz(T),leftoright(S),lane_numer(S),lane_width(R),lane_cur(R),grade(R),slope(R),fliction(R),belt_type(R),curb_height(R)
0,429810.694 4414900.630 59.982 429801.777 4414905.871 60.043 429799.496 4414907.439 60.064 429797.292 4414908.931 60.094 429793.688 4414911.372 60.113 429791.903 4414912.582 60.158 429790.059 4414913.840 60.182 429787.993 4414915.248 60.198 429785.919 4414916.656 60.217 429783.936 4414918.000 60.236 429782.110 4414919.245 60.246 429779.557 4414920.982 60.260 429777.698 4414922.251 60.272 429775.790 4414923.554 60.283 429773.767 4414924.930 60.299 429772.041 4414926.110 60.309 429770.083 4414927.423 60.298 429767.960 4414928.890 60.362 429766.120 4414930.149 60.372 429764.284 4414931.389 60.371 429762.147 4414932.846 60.379 429759.864 4414934.395 60.391 429757.593 4414935.947 60.398 429755.843 4414937.139 60.403 429753.657 4414938.627 60.393 429751.480 4414940.113 60.431 429749.097 4414941.733 60.449 429747.327 4414942.938 60.457 429745.351 4414944.279 60.469 429743.129 4414945.792 60.471 429741.144 4414947.139 60.483 429739.434 4414948.303 60.496 429737.240 4414949.800 60.508 429735.334 4414951.092 60.514 429733.649 4414952.240 60.525 429731.176 4414953.946 60.532 429729.221 4414955.307 60.547 429727.257 4414956.685 60.548 429725.529 4414957.900 60.550 429722.974 4414959.715 60.556 429720.978 4414961.170 60.569 429719.288 4414962.425 60.578 429716.882 4414964.221 60.589 429715.004 4414965.627 60.596 429713.309 4414966.917 60.600 429710.742 4414968.882 60.605 429708.510 4414970.589 60.615 429706.473 4414972.190 60.623 429704.564 4414973.692 60.626 429702.086 4414975.675 60.633 429700.287 4414977.137 60.633 429698.579 4414978.537 60.633 429696.737 4414980.068 60.634 429694.929 4414981.570 60.624 429693.193 4414983.014 60.613 429691.481 4414984.456 60.633 429689.645 4414986.047 60.641 429687.965 4414987.521 60.644 429685.658 4414989.538 60.645 429683.525 4414991.421 60.647 429681.637 4414993.135 60.648 429680.111 4414994.518 60.652 429677.914 4414996.524 60.655 429675.697 4414998.597 60.658 429674.103 4415000.088 60.661 429672.173 4415001.921 60.652 429670.170 4415003.815 60.647 429667.941 4415005.970 60.645 429666.369 4415007.497 60.640 429664.617 4415009.230 60.636 429662.359 4415011.489 60.611 429660.583 4415013.260 60.618 429658.694 4415015.184 60.619 429657.171 4415016.762 60.620 429655.000 4415019.033 60.612 429653.047 4415021.089 60.608 429651.584 4415022.665 60.601 429649.814 4415024.583 60.593 429648.145 4415026.388 60.587 429646.651 4415028.020 60.580 429645.267 4415029.550 60.566 429643.719 4415031.286 60.562 429642.346 4415032.829 60.560 429641.041 4415034.533 60.549 429611.384 4415071.786 60.389 429609.892 4415073.874 60.423 429608.643 4415075.625 60.419 429607.153 4415077.759 60.427 429605.507 4415080.150 60.420 429603.848 4415082.586 60.411 429602.350 4415084.800 60.400 429600.732 4415087.236 60.386 429599.239 4415089.534 60.375 429597.484 4415092.247 60.366 429596.167 4415094.313 60.355 429594.872 4415096.370 60.344 429593.559 4415098.489 60.337 429592.153 4415100.784 60.318 429590.623 4415103.284 60.308 429589.519 4415105.113 60.302 429588.190 4415107.330 60.291 429586.700 4415109.858 60.283 429585.219 4415112.398 60.275 429584.033 4415114.489 60.271 429582.891 4415116.511 60.260 429581.741 4415118.556 60.248 429580.597 4415120.633 60.236 429579.335 4415122.949 60.224 429578.960 4415123.591 60.191 429578.648 4415124.165 60.188 429577.264 4415126.755 60.179 429576.314 4415128.546 60.173 429575.315 4415130.467 60.175 429574.263 4415132.567 60.142 429573.261 4415134.466 60.164 429572.277 4415136.379 60.158 429571.236 4415138.435 60.154 429570.318 4415140.325 60.149 429568.112 4415144.865 60.127 429567.164 4415146.827 60.115 429566.119 4415149.037 60.103 429565.235 4415150.932 60.098 429564.373 4415152.808 60.095 429563.195 4415155.416 60.089 429561.916 4415158.224 60.083 429560.973 4415160.387 60.078 429559.762 4415163.293 60.042 429558.255 4415166.818 60.067 429556.955 4415169.852 60.066 429556.119 4415171.887 60.063 429554.682 4415175.352 60.057 429553.409 4415178.421 60.052 429552.323 4415181.019 60.042 429551.467 4415183.043 60.037 429550.450 4415185.444 60.029 429549.216 4415188.474 60.015 429548.427 4415190.372 60.002 429547.465 4415192.665 59.954 429546.427 4415195.167 59.973 429545.600 4415197.147 59.966 429544.562 4415199.673 59.959 429543.065 4415203.265 59.965 429542.117 4415205.493 59.961 429541.019 4415208.193 59.955 429540.172 4415210.190 59.955 429539.033 4415212.955 59.962 429537.958 4415215.515 59.969 429537.034 4415217.803 59.971 429534.814 4415223.143 59.950 429533.976 4415225.164 59.934 429532.942 4415227.649 59.957 429532.014 4415229.904 59.965 429530.853 4415232.673 59.972 429530.074 4415234.554 59.978 429529.263 4415236.501 59.983 429528.235 4415239.004 59.981 429525.995 4415244.405 59.960 429524.658 4415247.569 59.962 429523.769 4415249.648 59.958 429522.866 4415251.696 59.955 429521.634 4415254.361 59.947 429519.474 4415259.105 59.915 429518.615 4415260.953 59.904 429517.394 4415263.469 59.889 429516.341 4415265.521 59.903 429515.359 4415267.501 59.900 429514.386 4415269.428 59.900 429513.359 4415271.447 59.902 429512.403 4415273.300 59.916 429511.450 4415275.105 59.926 429510.432 4415276.915 59.940 429508.949 4415279.540 59.946 429507.797 4415281.534 59.945 429506.771 4415283.275 59.947 429505.648 4415285.182 59.954 429504.073 4415287.864 59.963 429503.001 4415289.590 59.967 429501.777 4415291.502 59.970 429500.650 4415293.286 59.976 429499.026 4415295.786 59.974 429497.461 4415298.212 59.973 429495.710 4415300.774 59.945 429494.074 4415303.199 59.958 429492.776 4415305.092 59.958 429491.432 4415307.027 59.960 429489.266 4415310.002 59.969 429487.887 4415311.903 59.975 429486.325 4415314.003 59.980 429484.494 4415316.395 59.983 429483.015 4415318.270 59.985 429481.564 4415320.132 59.989 429480.147 4415321.912 59.994 429478.706 4415323.672 60.004 429477.332 4415325.335 60.016 429475.844 4415327.070 60.026 429474.097 4415329.112 60.042 429472.746 4415330.658 60.050 429471.268 4415332.352 60.054 429469.841 4415333.974 60.057 429468.466 4415335.494 60.063 429467.059 4415337.060 60.063 429465.982 4415338.288 60.091 429465.377 4415338.931 60.077 429462.470 4415341.989 60.097 429459.565 4415344.969 60.117 429457.633 4415346.918 60.125 429455.857 4415348.670 60.123 429454.337 4415350.135 60.121 429452.279 4415352.092 60.120 429450.802 4415353.474 60.123 429442.919 4415360.795 60.174 429441.101 4415362.494 60.167 429434.025 4415369.075 60.208 429432.300 4415370.652 60.215 429430.615 4415372.162 60.211 429393.174 4415406.745 60.428 429390.807 4415408.863 60.428 429389.058 4415410.482 60.439 429386.903 4415412.472 60.449 429384.929 4415414.295 60.460 429382.611 4415416.420 60.454 429381.088 4415417.838 60.485 429379.415 4415419.382 60.501 429377.637 4415421.018 60.502 429375.728 4415422.774 60.505 429373.699 4415424.645 60.516 429371.927 4415426.276 60.525 429370.387 4415427.698 60.532 429368.670 4415429.282 60.539 429367.054 4415430.769 60.551 429365.228 4415432.455 60.561 429363.160 4415434.349 60.569 429361.486 4415435.894 60.581 429359.467 4415437.740 60.588 429357.503 4415439.551 60.607 429355.789 4415441.133 60.618 429353.804 4415442.965 60.631 429351.802 4415444.788 60.606 429350.146 4415446.336 60.629 429348.201 4415448.121 60.641 429346.576 4415449.618 60.664 429344.557 4415451.475 60.693 429342.148 4415453.694 60.714 429340.677 4415455.051 60.718 429338.947 4415456.637 60.726 429337.074 4415458.357 60.735 429335.427 4415459.875 60.742 429333.636 4415461.579 60.755 429332.123 4415463.129 60.770 429330.636 4415464.709 60.772 429329.145 4415466.314 60.768 429327.612 4415467.952 60.779 429325.362 4415470.359 60.780 429323.898 4415471.928 60.791 429321.980 4415473.978 60.803 429320.555 4415475.474 60.804 429318.875 4415477.134 60.804 429317.498 4415478.431 60.809 429315.752 4415480.046 60.822 429313.580 4415482.052 60.836 429311.807 4415483.685 60.849 429310.113 4415485.242 60.859 429308.037 4415487.143 60.870 429306.170 4415488.868 60.880 429303.903 4415490.955 60.890 429302.153 4415492.565 60.898 429300.538 4415494.049 60.868 429298.958 4415495.517 60.913 429297.312 4415497.037 60.931 429295.494 4415498.708 60.935 429293.954 4415500.118 60.938 429292.448 4415501.504 60.939 429290.573 4415503.233 60.947 429288.623 4415505.031 60.969,,,,,,,,,
1,429248.323 4415497.013 61.047 429244.358 4415477.552 60.877 429243.810 4415474.931 60.898 429243.349 4415472.665 60.892 429242.927 4415470.554 60.883 429242.311 4415467.550 60.868 429241.706 4415464.526 60.865 429241.136 4415461.705 60.861 429240.490 4415458.559 60.851 429239.946 4415455.853 60.838 429239.650 4415454.362 60.842 429236.597 4415439.224 60.820 429235.898 4415435.741 60.796 429234.013 4415426.484 60.814 429233.523 4415423.990 60.808 429231.633 4415414.722 60.816 429230.436 4415408.764 60.833 429229.248 4415402.962 60.847 429226.298 4415388.255 60.865 429221.739 4415365.712 60.957 429220.880 4415361.374 60.968 429219.762 4415355.910 60.999 429219.170 4415352.969 60.999 429218.589 4415350.025 60.968 429217.989 4415347.086 61.009 429215.330 4415333.844 61.055 429213.860 4415326.654 61.076 429212.855 4415321.516 61.091 429211.232 4415313.575 61.112 429209.673 4415305.919 61.108 429209.058 4415302.811 61.126 429204.002 4415277.745 61.225 429203.147 4415273.531 61.234 429202.675 4415271.176 61.217 429202.254 4415269.120 61.254 429199.785 4415256.992 61.303 429195.590 4415236.274 61.366 429194.966 4415233.069 61.369 429194.489 4415230.773 61.393 429193.430 4415225.545 61.421 429192.006 4415218.692 61.468 429191.177 4415214.847 61.492 429190.119 4415210.104 61.511 429189.620 4415207.954 61.525 429189.407 4415207.062 61.529 429189.133 4415206.015 61.533 429188.173 4415202.509 61.546 429187.471 4415200.187 61.563 429186.616 4415197.375 61.540 429185.663 4415194.531 61.584 429184.915 4415192.281 61.589 429184.094 4415189.988 61.609 429183.331 4415187.932 61.621 429182.614 4415186.066 61.628 429181.876 4415184.207 61.637 429181.078 4415182.221 61.646 429180.179 4415180.214 61.651 429162.249 4415148.015 61.838 429162.202 4415147.758 61.829 429160.913 4415145.705 61.841 429159.943 4415144.303 61.859 429158.171 4415141.882 61.873 429156.776 4415140.035 61.874 429155.456 4415138.364 61.894 429152.124 4415134.216 61.939 429150.689 4415132.503 61.944 429149.388 4415130.985 61.950 429148.329 4415129.764 61.955 429147.440 4415128.766 61.963,,,,,,,,,
2,429123.140 4415105.950 62.186 429121.947 4415105.027 62.145 429119.653 4415103.272 62.155 429117.146 4415101.432 62.171 429114.078 4415099.256 62.198 429113.056 4415098.557 62.208 429110.565 4415096.885 62.232 429108.024 4415095.226 62.220 429105.859 4415093.880 62.252 429104.016 4415092.740 62.246 429102.944 4415092.103 62.260 429100.351 4415090.596 62.287 429097.966 4415089.248 62.296 429095.344 4415087.810 62.299 429093.344 4415086.738 62.322 429092.577 4415086.346 62.329 429090.691 4415085.423 62.341 429088.846 4415084.561 62.350 429086.259 4415083.456 62.356 429084.240 4415082.616 62.369 429082.309 4415081.810 62.385 429079.857 4415080.765 62.386 429077.550 4415079.796 62.378 429075.267 4415078.857 62.417 429073.406 4415078.079 62.428 429071.441 4415077.272 62.435 429069.407 4415076.383 62.440 429067.413 4415075.396 62.453 429065.442 4415074.412 62.460 429063.588 4415073.478 62.470 429061.501 4415072.432 62.484 429059.383 4415071.363 62.496 429057.119 4415070.228 62.510 429055.159 4415069.245 62.521 429052.589 4415067.949 62.518 429050.459 4415066.888 62.523 429048.125 4415065.707 62.549 429046.086 4415064.655 62.536 429043.346 4415063.310 62.581 429041.032 4415062.146 62.594 429038.817 4415061.040 62.609 429032.255 4415057.761 62.690,,,,,,,,,
3,429024.808 4415018.179 62.843 429026.913 4415013.337 62.806 429027.987 4415010.824 62.780 429028.844 4415008.800 62.780 429029.675 4415006.831 62.767 429030.622 4415004.574 62.763 429031.387 4415002.706 62.754 429032.236 4415000.623 62.746 429033.010 4414998.670 62.736 429033.816 4414996.611 62.723 429034.600 4414994.536 62.709 429035.337 4414992.575 62.696 429036.311 4414989.964 62.693 429036.991 4414988.040 62.680 429037.956 4414985.198 62.666 429038.688 4414983.001 62.655 429039.441 4414980.716 62.644 429040.125 4414978.606 62.638 429040.718 4414976.695 62.628 429041.384 4414974.506 62.617 429041.974 4414972.569 62.607 429042.833 4414969.747 62.602 429043.425 4414967.655 62.597 429044.024 4414965.488 62.590 429044.576 4414963.448 62.583 429045.112 4414961.377 62.575 429045.656 4414959.275 62.567 429046.366 4414956.356 62.552 429046.864 4414954.277 62.539 429047.520 4414951.453 62.518 429048.009 4414949.307 62.501 429048.490 4414947.145 62.486 429048.932 4414945.064 62.472 429049.362 4414942.918 62.459 429049.785 4414940.657 62.439 429050.170 4414938.530 62.430 429050.566 4414936.284 62.420 429051.114 4414933.144 62.417 429051.445 4414931.099 62.408 429051.845 4414928.499 62.394 429052.173 4414926.401 62.390 429052.388 4414924.938 62.386 429052.721 4414922.538 62.388 429053.052 4414920.083 62.380 429053.289 4414917.973 62.377 429053.524 4414915.874 62.370 429053.775 4414913.611 62.360 429054.001 4414911.569 62.348 429054.214 4414909.421 62.336 429054.502 4414906.380 62.321 429054.718 4414904.046 62.318 429054.954 4414901.507 62.302 429055.137 4414899.485 62.290 429055.344 4414897.172 62.281 429055.543 4414895.107 62.273 429055.740 4414892.931 62.261 429055.936 4414890.749 62.248 429056.168 4414888.125 62.238 429056.420 4414885.297 62.228 429056.598 4414883.238 62.222 429056.781 4414881.176 62.215 429056.981 4414879.061 62.207 429057.186 4414876.811 62.201 429057.391 4414874.705 62.187 429057.582 4414872.659 62.169 429057.791 4414870.445 62.157 429057.993 4414868.364 62.147 429058.240 4414865.948 62.131 429058.468 4414863.756 62.117 429058.860 4414860.245 62.092 429059.141 4414857.856 62.105 429059.473 4414855.510 62.095 429059.808 4414853.465 62.083 429060.255 4414850.841 62.065 429060.638 4414848.635 62.053 429061.027 4414846.513 62.041 429061.410 4414844.473 62.033 429061.852 4414842.257 62.028 429062.341 4414839.941 62.020 429062.807 4414837.867 62.020 429063.495 4414834.943 62.005 429063.975 4414832.965 61.995 429064.526 4414830.800 61.985 429065.297 4414827.883 61.961 429065.824 4414825.940 61.948 429066.404 4414823.913 61.936 429067.283 4414820.992 61.925 429067.870 4414819.076 61.920 429068.750 4414816.313 61.913 429069.388 4414814.403 61.906 429070.087 4414812.391 61.901 429070.773 4414810.453 61.895 429071.568 4414808.323 61.880 429072.469 4414806.145 61.886 429073.810 4414805.761 61.882 429074.598 4414803.752 61.859 429075.363 4414801.869 61.843 429076.133 4414799.986 61.832 429076.990 4414797.998 61.815 429077.983 4414795.694 61.808 429078.805 4414793.827 61.804 429079.710 4414791.859 61.801 429080.663 4414789.858 61.794 429081.627 4414787.798 61.782 429082.707 4414785.630 61.767 429090.385 4414768.818 61.685 429091.446 4414767.044 61.670 429092.870 4414764.828 61.660 429094.057 4414762.990 61.646 429095.652 4414760.528 61.633 429096.828 4414758.706 61.623 429098.168 4414756.667 61.607 429099.379 4414754.896 61.599 429100.513 4414753.219 61.595 429101.670 4414751.486 61.585 429102.904 4414749.663 61.574 429104.549 4414747.227 61.556 429105.797 4414745.382 61.548 429106.998 4414743.593 61.537 429108.817 4414740.902 61.521 429110.127 4414738.953 61.512 429111.335 4414737.160 61.508 429112.544 4414735.376 61.501 429113.687 4414733.675 61.495 429115.426 4414731.105 61.485 429116.822 4414729.048 61.469 429117.994 4414727.312 61.459 429119.147 4414725.600 61.445 429120.509 4414723.588 61.427 429121.751 4414721.739 61.413 429123.547 4414719.109 61.406 429124.888 4414717.122 61.403 429126.337 4414714.982 61.393 429128.049 4414712.441 61.378 429129.320 4414710.552 61.363 429130.500 4414708.805 61.349 429131.674 4414707.059 61.334 429133.349 4414704.573 61.325 429135.049 4414702.054 61.310 429136.206 4414700.338 61.303 429137.466 4414698.473 61.293 429138.690 4414696.665 61.282 429139.823 4414694.984 61.273 429140.959 4414693.309 61.261 429142.119 4414691.597 61.248 429143.322 4414689.827 61.233 429144.597 4414687.945 61.215 429146.101 4414685.732 61.192 429147.242 4414684.047 61.186 429148.424 4414682.286 61.178 429149.621 4414680.537 61.167 429150.967 4414678.547 61.160 429152.163 4414676.777 61.136 429153.391 4414674.953 61.127 429154.524 4414673.280 61.123 429155.885 4414671.274 61.124 429157.059 4414669.527 61.123 429158.215 4414667.797 61.115 429159.981 4414665.189 61.099 429161.161 4414663.423 61.093 429162.406 4414661.578 61.082 429163.528 4414659.914 61.074 429165.399 4414657.145 61.059 429166.622 4414655.325 61.046 429167.823 4414653.582 61.036 429169.232 4414651.469 61.029 429170.367 4414649.785 61.017 429171.582 4414647.992 60.992 429172.777 4414646.225 60.959 429174.503 4414643.683 60.922 429175.783 4414641.804 60.893 429176.906 4414640.134 60.915 429178.087 4414638.377 60.932 429179.261 4414636.633 60.931 429180.433 4414634.903 60.919 429181.568 4414633.232 60.906 429182.785 4414631.426 60.902 429184.130 4414629.439 60.898 429185.805 4414626.960 60.881 429187.211 4414624.875 60.869 429188.438 4414623.062 60.861 429189.779 4414621.081 60.850 429190.914 4414619.393 60.840 429192.040 4414617.733 60.830 429193.179 4414616.042 60.819 429194.698 4414613.791 60.806 429196.361 4414611.315 60.795 429197.585 4414609.509 60.785 429198.722 4414607.830 60.775 429199.952 4414606.005 60.763 429201.094 4414604.313 60.751 429202.778 4414601.830 60.736 429203.984 4414600.038 60.723 429205.891 4414597.207 60.714 429207.049 4414595.493 60.707 429208.198 4414593.789 60.698 429209.600 4414591.811 60.692 429211.050 4414591.474 60.677 429212.297 4414589.767 60.656 429213.552 4414587.948 60.657 429214.925 4414585.984 60.642 429216.181 4414584.177 60.634 429217.462 4414582.344 60.625 429218.789 4414580.393 60.618 429220.025 4414578.582 60.611 429221.271 4414576.780 60.603 429222.819 4414574.524 60.590 429224.085 4414572.725 60.582 429225.316 4414570.940 60.574 429226.790 4414568.803 60.565 429228.072 4414566.909 60.560 429229.343 4414565.083 60.557 429230.508 4414563.325 60.559 429231.213 4414562.185 60.566 429230.790 4414561.141 60.565 429231.029 4414560.053 60.549 429232.230 4414558.241 60.526 429233.473 4414556.400 60.510 429234.642 4414554.658 60.497 429235.925 4414552.753 60.492 429237.124 4414550.969 60.487 429238.289 4414549.246 60.477 429239.670 4414547.211 60.463 429240.865 4414545.453 60.449 429242.590 4414542.901 60.431 429243.730 4414541.210 60.423 429244.968 4414539.378 60.412 429245.973 4414537.883 60.403 429247.175 4414536.094 60.395 429248.339 4414534.371 60.385 429249.643 4414532.442 60.370 429250.871 4414530.633 60.361 429252.106 4414528.807 60.346 429253.419 4414526.862 60.339 429254.627 4414525.077 60.329 429256.004 4414523.024 60.311 429257.175 4414521.300 60.303 429258.468 4414519.397 60.300 429259.679 4414517.619 60.298 429260.982 4414515.733 60.291 429262.137 4414514.090 60.278 429263.964 4414511.512 60.263 429265.410 4414509.522 60.248 429266.666 4414507.811 60.239 429268.101 4414505.932 60.224 429269.439 4414504.222 60.211 429270.693 4414502.623 60.198 429271.993 4414500.992 60.194 429273.249 4414499.419 60.192 429274.731 4414497.613 60.179 429276.224 4414495.800 60.176 429278.390 4414493.306 60.149 429280.119 4414491.393 60.135 429281.768 4414489.568 60.127 429283.296 4414487.909 60.115 429284.836 4414486.258 60.102 429287.007 4414484.011 60.086 429288.537 4414482.439 60.074 429290.044 4414480.929 60.066 429291.547 4414479.444 60.063 429292.986 4414478.047 60.058 429294.826 4414476.296 60.042 429296.392 4414474.817 60.034 429297.974 4414473.343 60.019 429299.514 4414471.932 60.007 429301.193 4414470.435 59.999 429302.704 4414469.107 59.990 429304.440 4414467.617 59.975 429306.060 4414466.240 59.961 429308.380 4414464.328 59.938 429310.059 4414462.976 59.934 429311.625 4414461.725 59.931 429313.837 4414459.983 59.921 429315.549 4414458.665 59.911 429317.546 4414457.174 59.896 429319.470 4414455.752 59.880 429321.184 4414454.503 59.865 429323.241 4414453.033 59.848 429324.894 4414451.866 59.840 429326.736 4414450.610 59.825 429328.467 4414449.471 59.816 429330.214 4414448.331 59.804 429331.922 4414447.230 59.796 429334.603 4414445.546 59.779 429336.389 4414444.442 59.769 429338.293 4414443.290 59.762 429340.133 4414442.179 59.758 429341.926 4414441.122 59.767 429343.854 4414440.006 59.755 429346.322 4414438.638 59.743 429348.106 4414437.649 59.730 429350.033 4414436.608 59.718 429352.218 4414435.447 59.708 429354.014 4414434.529 59.701 429355.894 4414433.608 59.691 429357.842 4414432.668 59.682 429359.756 4414431.780 59.674 429361.803 4414430.820 59.670 429364.464 4414429.600 59.658 429366.581 4414428.645 59.647 429368.501 4414427.815 59.636 429370.426 4414426.998 59.626 429372.396 4414426.172 59.613 429374.597 4414425.285 59.602 429376.592 4414424.496 59.593 429378.698 4414423.699 59.578 429380.758 4414422.932 59.562 429382.771 4414422.191 59.552 429388.869 4414420.125 59.531 429405.663 4414414.615 59.417,,,,,,,,,
4,429436.512 4414397.700 59.218 429443.171 4414396.489 59.091 429446.114 4414395.993 59.077 429446.285 4414395.979 59.093 429450.453 4414395.148 59.103 429454.484 4414394.330 59.059 429457.421 4414393.718 59.081 429458.977 4414393.401 59.073 429468.702 4414391.415 58.992 429474.096 4414390.314 58.968 429476.975 4414389.744 58.954 429480.137 4414389.087 58.934 429482.820 4414388.556 58.894 429485.573 4414387.974 58.922 429490.210 4414387.059 58.915 429495.069 4414386.072 58.894 429500.056 4414385.068 58.828 429502.138 4414384.634 58.827 429509.071 4414383.250 58.824 429522.641 4414380.532 58.769 429528.970 4414379.250 58.721 429531.911 4414378.661 58.668 429535.222 4414377.984 58.700 429537.789 4414377.464 58.696 429547.600 4414375.469 58.655 429556.662 4414373.647 58.601 429559.281 4414373.106 58.586 429563.507 4414372.276 58.567 429565.966 4414371.768 58.548 429570.542 4414370.857 58.515 429573.218 4414370.355 58.493 429584.985 4414367.929 58.449 429599.410 4414365.043 58.395 429607.245 4414363.443 58.329 429609.412 4414363.019 58.310 429612.285 4414362.433 58.288 429616.682 4414361.561 58.229 429619.144 4414361.044 58.240 429622.086 4414360.453 58.238 429624.561 4414359.953 58.238 429626.824 4414359.366 58.235 429644.828 4414350.833 58.091 429650.444 4414349.668 58.062 429653.033 4414349.133 58.057 429655.142 4414348.713 58.047 429658.275 4414348.085 58.034 429661.036 4414347.523 58.020 429665.738 4414346.564 58.000 429667.840 4414346.156 57.989 429672.087 4414345.298 57.972 429674.125 4414344.882 57.942 429677.801 4414344.125 58.020 429681.031 4414343.470 58.047 429682.014 4414343.286 58.111 429684.113 4414342.839 58.063 429686.527 4414342.355 58.076 429699.492 4414339.842 58.148,,,,,,,,,
5,429701.355 4414374.039 58.294 429694.087 4414375.437 58.102 429691.842 4414375.883 58.064 429689.193 4414376.394 58.022 429686.838 4414376.904 57.994 429684.166 4414377.468 57.964 429681.230 4414378.057 57.922 429678.864 4414378.499 57.943 429675.523 4414379.186 57.941 429673.503 4414379.590 57.943 429670.670 4414380.156 57.945 429668.546 4414380.611 57.959 429666.361 4414381.039 57.970 429663.967 4414381.503 57.979 429661.350 4414382.010 57.994 429657.554 4414382.778 58.013 429654.756 4414383.317 58.026 429651.635 4414384.003 58.026 429630.777 4414383.142 58.260 429628.404 4414383.604 58.257 429581.085 4414393.133 58.484 429578.408 4414393.669 58.491 429576.123 4414394.117 58.468 429573.855 4414394.575 58.525 429569.113 4414395.551 58.565 429555.477 4414398.315 58.620 429546.061 4414400.195 58.669 429541.016 4414401.236 58.687 429536.227 4414402.185 58.681 429534.055 4414402.632 58.716 429529.067 4414403.628 58.740 429524.500 4414404.561 58.762 429506.850 4414408.095 58.844 429503.908 4414408.681 58.834 429499.992 4414409.492 58.888 429495.766 4414410.343 58.894 429493.210 4414410.839 58.870 429490.526 4414411.397 58.918 429487.274 4414412.046 58.937 429479.409 4414413.652 58.948 429475.383 4414414.457 58.963 429467.647 4414416.027 59.024 429460.983 4414417.388 59.047 429457.384 4414418.140 59.028 429453.932 4414418.839 59.070 429450.010 4414419.625 59.096 429446.094 4414420.438 59.123 429441.072 4414421.435 59.140 429440.703 4414421.504 59.134 429438.680 4414421.902 59.145 429434.708 4414422.650 59.226,,,,,,,,,
6,429406.355 4414429.573 59.340 429404.818 4414429.911 59.313 429401.898 4414430.584 59.337 429399.412 4414431.194 59.359 429396.363 4414432.051 59.380 429394.123 4414432.717 59.394 429391.533 4414433.493 59.397 429388.386 4414434.522 59.408 429386.386 4414435.245 59.413 429384.463 4414435.953 59.417 429382.529 4414436.670 59.409 429380.471 4414437.457 59.443 429378.366 4414438.283 59.449 429376.451 4414439.083 59.457 429373.788 4414440.189 59.471 429371.257 4414441.315 59.487 429368.395 4414442.612 59.504 429365.947 4414443.745 59.511 429363.984 4414444.673 59.515 429361.794 4414445.749 59.521 429359.860 4414446.725 59.534 429356.872 4414448.266 59.552 429354.399 4414449.597 59.563 429352.338 4414450.730 59.570 429350.391 4414451.809 59.574 429348.596 4414452.859 59.566 429346.684 4414453.950 59.589 429344.905 4414455.007 59.606 429343.033 4414456.160 59.614 429339.089 4414458.676 59.635 429335.739 4414460.862 59.658 429332.572 4414462.987 59.682 429330.771 4414464.227 59.694 429328.330 4414465.970 59.705 429326.477 4414467.317 59.718 429322.992 4414469.939 59.739 429318.802 4414473.248 59.763 429317.010 4414474.670 59.745 429314.749 4414476.549 59.796 429311.866 4414478.996 59.827 429309.533 4414481.065 59.839 429307.464 4414482.939 59.849 429304.467 4414485.722 59.868 429303.019 4414487.103 59.876 429301.839 4414488.241 59.883 429298.207 4414491.829 59.913 429297.876 4414492.153 59.918 429296.468 4414493.612 59.925 429295.551 4414494.580 59.925 429293.204 4414497.053 59.937 429291.685 4414498.733 59.934 429289.612 4414501.018 59.966 429287.909 4414502.969 59.977 429285.939 4414505.297 60.001 429284.656 4414506.844 60.014 429282.287 4414509.718 60.027 429281.489 4414510.714 60.031 429278.417 4414514.659 60.049 429276.019 4414517.861 60.070 429274.794 4414519.541 60.079 429273.096 4414521.917 60.099 429270.238 4414526.020 60.117 429269.111 4414527.672 60.126 429267.996 4414529.332 60.162 429251.767 4414553.427 60.287 429247.868 4414559.178 60.291 429246.189 4414561.664 60.322 429242.271 4414567.465 60.352 429232.193 4414582.379 60.423 429231.076 4414584.038 60.416 429226.598 4414590.668 60.472 429224.207 4414594.187 60.475 429222.935 4414596.087 60.510 429221.794 4414597.765 60.526 429217.788 4414603.709 60.551 429215.339 4414607.310 60.573 429212.234 4414611.903 60.586 429208.437 4414617.541 60.621 429206.737 4414620.046 60.607 429205.234 4414622.277 60.654 429201.950 4414627.114 60.676 429196.433 4414635.307 60.732 429187.268 4414648.891 60.810 429184.430 4414653.054 60.823 429182.365 4414656.121 60.853 429175.208 4414666.716 60.894 429170.835 4414673.193 60.940 429169.500 4414675.186 60.935 429167.252 4414678.494 60.978 429165.005 4414681.804 60.991 429157.742 4414692.585 61.046 429154.934 4414696.722 61.064 429151.476 4414701.859 61.104 429148.445 4414706.331 61.127 429146.522 4414709.141 61.108 429145.104 4414711.267 61.146 429139.943 4414718.872 61.170 429137.277 4414722.826 61.206 429135.728 4414725.097 61.221 429134.275 4414727.279 61.235 429130.274 4414733.161 61.277 429125.164 4414740.807 61.329 429123.985 4414742.530 61.334 429120.243 4414748.106 61.368 429109.025 4414764.664 61.462 429107.453 4414767.034 61.450 429106.229 4414768.955 61.500 429104.536 4414771.598 61.513 429103.315 4414773.538 61.518 429102.570 4414774.778 61.520 429100.216 4414778.797 61.537 429099.061 4414780.834 61.558 429097.945 4414782.837 61.577 429095.728 4414786.990 61.606 429093.451 4414791.355 61.635 429092.341 4414793.586 61.651 429091.444 4414795.547 61.665 429089.248 4414800.512 61.678 429087.953 4414803.535 61.681 429087.176 4414805.421 61.667 429085.812 4414808.829 61.701 429084.386 4414812.566 61.719 429083.028 4414816.328 61.738 429081.421 4414821.064 61.758 429080.540 4414823.846 61.780 429079.934 4414825.837 61.799 429078.868 4414829.488 61.827 429078.187 4414831.953 61.826 429077.583 4414834.216 61.858 429076.420 4414838.914 61.887 429076.290 4414839.468 61.887 429075.773 4414841.780 61.899 429075.214 4414844.339 61.910 429074.748 4414846.682 61.919 429074.265 4414849.173 61.930 429073.805 4414851.748 61.943 429073.178 4414855.535 61.967 429072.841 4414857.721 61.983 429072.419 4414860.809 62.003 429072.146 4414863.067 62.010 429071.762 4414866.442 62.019 429071.481 4414869.125 62.005 429071.233 4414871.789 62.040 429069.319 4414892.783 62.133 429068.633 4414900.169 62.145 429068.418 4414902.321 62.126 429068.154 4414905.274 62.162 429067.774 4414909.196 62.176 429066.918 4414917.209 62.203 429065.985 4414925.442 62.242 429065.709 4414927.968 62.258 429065.384 4414930.892 62.278 429065.086 4414933.345 62.265 429064.832 4414935.731 62.312 429064.581 4414937.948 62.322 429064.316 4414940.206 62.334 429064.025 4414942.685 62.327 429063.670 4414945.442 62.296 429063.383 4414947.526 62.329 429063.063 4414949.733 62.331 429062.684 4414952.109 62.343 429062.108 4414955.079 62.359 429061.446 4414958.124 62.385 429060.940 4414960.085 62.401 429060.298 4414962.586 62.417 429059.687 4414964.969 62.427 429059.073 4414967.281 62.433 429058.516 4414969.300 62.439 429058.328 4414969.895 62.438 429057.989 4414971.118 62.442 429057.398 4414973.176 62.448 429056.622 4414975.772 62.428 429055.908 4414978.099 62.474 429055.129 4414980.678 62.489 429054.547 4414982.596 62.505 429053.880 4414984.675 62.521 429053.165 4414986.846 62.535 429052.495 4414988.905 62.548 429051.803 4414991.039 62.558 429051.065 4414993.127 62.569 429050.371 4414995.042 62.582 429049.520 4414997.383 62.590 429048.488 4415000.085 62.602 429047.429 4415002.895 62.627 429046.587 4415005.046 62.642 429045.853 4415006.964 62.652 429045.020 4415009.113 62.655 429044.099 4415011.214 62.638 429042.937 4415013.886 62.631 429041.620 4415016.896 62.656 429038.029 4415025.316 62.722,,,,,,,,,
7,429037.977 4415046.972 62.799 429039.405 4415047.755 62.780 429061.529 4415058.517 62.720 429064.526 4415060.011 62.700 429067.576 4415061.550 62.679 429069.761 4415062.620 62.669 429072.041 4415063.744 62.659 429074.490 4415064.972 62.637 429076.628 4415066.068 62.621 429080.061 4415067.711 62.596 429082.683 4415069.018 62.584 429084.748 4415070.125 62.559 429086.985 4415071.240 62.528 429088.820 4415072.178 62.522 429091.448 4415073.495 62.497 429094.458 4415075.063 62.476 429105.756 4415081.208 62.414 429110.572 4415083.986 62.445 429120.251 4415090.336 62.327 429131.273 4415098.833 62.267,,,,,,,,,
8,429162.575 4415114.263 61.976 429162.923 4415114.612 61.974 429164.536 4415116.533 61.954 429165.974 4415118.201 61.942 429167.294 4415119.763 61.930 429169.271 4415122.151 61.921 429170.915 4415124.231 61.912 429172.687 4415126.520 61.894 429173.982 4415128.236 61.858 429175.846 4415130.679 61.869 429176.952 4415132.200 61.857 429179.827 4415136.290 61.833 429181.352 4415138.547 61.811 429183.681 4415142.133 61.778 429184.547 4415143.525 61.762 429186.817 4415147.248 61.729 429188.788 4415150.644 61.707 429190.185 4415153.179 61.694 429191.163 4415155.030 61.657 429192.204 4415156.937 61.678 429193.547 4415159.520 61.656 429195.386 4415163.225 61.640 429196.014 4415164.582 61.641 429197.884 4415168.465 61.648 429198.763 4415170.412 61.651 429200.043 4415173.317 61.631 429201.222 4415176.169 61.598 429202.084 4415178.369 61.556 429203.496 4415182.111 61.504 429204.287 4415184.305 61.477 429205.673 4415188.369 61.426 429206.717 4415191.682 61.405 429207.337 4415193.677 61.463 429208.125 4415196.386 61.518 429208.394 4415197.335 61.525 429209.509 4415201.456 61.513 429210.060 4415203.549 61.506 429210.675 4415206.040 61.495 429211.336 4415208.824 61.478 429211.968 4415211.741 61.479 429212.423 4415214.049 61.453 429213.000 4415216.839 61.430 429215.197 4415227.569 61.399 429215.707 4415230.146 61.354 429216.181 4415232.427 61.370 429218.216 4415242.404 61.336 429220.776 4415255.006 61.269 429221.361 4415257.949 61.260 429222.457 4415263.307 61.256 429222.827 4415265.245 61.247 429223.318 4415267.598 61.206 429228.912 4415295.241 61.074 429229.443 4415297.907 61.076 429232.200 4415311.647 61.092 429234.989 4415325.529 61.046 429235.038 4415325.826 61.050 429235.635 4415328.739 61.039 429236.048 4415330.775 61.040 429236.450 4415332.789 61.030 429236.944 4415335.229 61.024 429237.461 4415337.752 61.022 429238.008 4415340.475 61.013 429238.456 4415342.688 61.006 429239.007 4415345.339 60.977 429239.428 4415347.486 60.975 429239.964 4415350.201 60.982 429240.400 4415352.300 60.979 429240.938 4415354.920 60.973 429241.405 4415357.207 60.966 429241.920 4415359.743 60.958 429242.415 4415362.189 60.947 429242.881 4415364.612 60.934 429243.451 4415367.439 60.925 429244.005 4415370.190 60.918 429244.606 4415373.203 60.900 429245.038 4415375.330 60.891 429245.448 4415377.325 60.887 429245.873 4415379.418 60.881 429246.311 4415381.559 60.879 429246.806 4415384.057 60.873 429247.317 4415386.555 60.864 429247.853 4415389.247 60.838 429248.203 4415391.032 60.839 429248.653 4415393.181 60.846 429249.157 4415395.634 60.843 429249.574 4415397.749 60.836 429249.992 4415399.803 60.835 429250.571 4415402.713 60.824 429250.984 4415404.745 60.819 429251.397 4415406.789 60.820 429252.002 4415409.810 60.819 429252.408 4415411.788 60.814 429252.799 4415413.752 60.811 429253.194 4415415.714 60.814 429253.637 4415417.858 60.813 429254.287 4415420.203 60.804 429254.780 4415421.914 60.796 429255.432 4415424.268 60.799 429255.997 4415426.324 60.791 429256.566 4415428.312 60.797 429257.265 4415430.892 60.768 429257.872 4415433.035 60.801 429258.553 4415435.367 60.797 429259.232 4415437.990 60.801 429259.686 4415440.307 60.812 429260.122 4415442.566 60.812 429260.762 4415445.704 60.813 429261.378 4415448.654 60.804 429261.825 4415450.834 60.806 429262.287 4415453.210 60.811 429262.849 4415455.868 60.833 429263.385 4415458.639 60.860 429264.084 4415461.993 60.871 429264.637 4415464.693 60.877 429265.074 4415466.879 60.878 429265.404 4415467.934 60.905 429265.913 4415469.104 60.876 429266.562 4415470.172 60.870 429267.610 4415471.568 60.886 429268.274 4415472.385 60.891 429268.957 4415473.127 60.918,,,,,,,,,
9,429283.885 4415492.718 61.087 429286.199 4415490.461 61.103 429300.156 4415477.647 60.965 429315.537 4415463.488 60.889 429325.569 4415454.228 60.841 429333.315 4415447.158 60.780 429346.059 4415435.383 60.718 429352.232 4415429.703 60.703 429364.733 4415418.196 60.643 429378.509 4415405.531 60.556 429396.357 4415389.032 60.477 429417.210 4415369.838 60.358 429436.037 4415352.501 60.273 429450.847 4415338.421 60.224 429456.992 4415332.069 60.176 429462.967 4415325.524 60.154 429464.982 4415323.241 60.146 429466.425 4415321.579 60.141 429467.902 4415319.854 60.137 429469.262 4415318.240 60.131 429471.082 4415316.002 60.121 429472.388 4415314.379 60.118 429473.656 4415312.785 60.111 429475.387 4415310.575 60.097 429476.688 4415308.885 60.084 429478.061 4415307.071 60.073 429479.393 4415305.286 60.066 429480.665 4415303.542 60.058 429481.924 4415301.795 60.057 429483.246 4415299.955 60.053 429484.498 4415298.166 60.048 429486.219 4415295.448 60.044 429487.555 4415293.710 60.046 429488.796 4415291.839 60.050 429490.001 4415290.009 60.053 429491.171 4415288.189 60.051 429492.344 4415286.353 60.044 429493.908 4415283.844 60.042 429494.988 4415282.092 60.037 429496.076 4415280.251 60.033 429497.151 4415278.446 60.026 429498.281 4415276.487 60.019 429499.302 4415274.683 60.011 429500.305 4415272.899 59.998 429501.318 4415271.072 59.982 429502.382 4415269.100 59.975 429503.324 4415267.313 59.972 429504.365 4415265.304 59.969 429505.307 4415263.464 59.960 429506.672 4415260.750 59.953 429507.674 4415258.709 59.956 429508.924 4415256.071 59.967 429509.905 4415254.010 59.977 429510.756 4415252.134 59.989 429511.651 4415250.141 60.004 429512.498 4415248.255 60.014 429513.340 4415246.350 60.023 429514.209 4415244.390 60.027 429515.097 4415242.331 60.031 429515.987 4415240.251 60.034 429516.854 4415238.215 60.039 429517.700 4415236.191 60.044 429518.600 4415234.000 60.047 429519.401 4415232.125 60.051 429520.426 4415229.650 60.051 429521.202 4415227.766 60.049 429522.061 4415225.742 60.041 429522.866 4415223.787 60.035 429524.031 4415221.169 60.024 429524.866 4415218.996 60.021 429525.741 4415216.871 60.021 429526.738 4415214.500 60.033 429527.635 4415212.342 60.041 429528.469 4415210.331 60.049 429529.376 4415208.165 60.054 429530.261 4415206.043 60.067 429531.072 4415204.103 60.078 429531.896 4415202.105 60.088 429532.701 4415200.170 60.094 429533.646 4415197.872 60.090 429534.521 4415195.762 60.089 429535.352 4415193.726 60.090 429536.134 4415191.866 60.087 429536.946 4415189.749 60.084 429537.657 4415187.730 60.084 429538.411 4415185.847 60.090 429539.423 4415183.820 60.101 429540.346 4415181.728 60.110 429541.181 4415179.710 60.119 429542.115 4415177.482 60.124 429542.956 4415175.489 60.130 429543.541 4415174.078 60.134 429544.338 4415172.187 60.140 429545.231 4415170.055 60.149 429546.163 4415167.862 60.151 429547.014 4415165.837 60.159 429547.872 4415163.824 60.170 429549.075 4415160.966 60.183 429549.869 4415158.983 60.195 429550.790 4415156.984 60.203 429551.715 4415154.882 60.209 429552.590 4415152.878 60.216 429553.488 4415150.841 60.224 429554.371 4415148.928 60.229 429555.332 4415146.810 60.236 429556.264 4415144.781 60.241 429557.196 4415142.818 60.249 429558.114 4415140.896 60.257 429559.104 4415138.823 60.267 429560.144 4415136.707 60.274 429561.100 4415134.758 60.280 429562.111 4415132.727 60.285 429563.106 4415130.755 60.286 429564.412 4415127.815 60.285 429565.632 4415125.826 60.292 429566.666 4415123.872 60.299 429567.785 4415121.761 60.310 429568.808 4415119.790 60.321 429570.100 4415117.411 60.331 429571.161 4415115.478 60.339 429572.200 4415113.592 60.345 429573.209 4415111.771 60.354 429574.231 4415109.983 60.365 429575.298 4415108.109 60.371 429576.751 4415105.598 60.385 429577.788 4415103.794 60.393 429579.095 4415101.592 60.400 429580.457 4415099.302 60.406 429581.517 4415097.555 60.412 429583.017 4415094.953 60.420 429584.164 4415093.216 60.428 429585.360 4415091.286 60.434 429586.985 4415088.704 60.444 429588.135 4415086.898 60.452 429589.254 4415085.160 60.455 429590.533 4415083.198 60.460 429591.917 4415081.089 60.465 429593.087 4415079.334 60.473 429594.331 4415077.463 60.483 429595.995 4415075.030 60.495 429597.246 4415073.208 60.502 429598.494 4415071.394 60.508 429599.832 4415069.477 60.508 429601.130 4415067.631 60.503 429602.172 4415066.226 60.502 429607.098 4415059.537 60.528 429617.018 4415046.825 60.588 429632.578 4415028.217 60.663 429640.277 4415019.226 60.744 429654.043 4415004.560 60.723 429666.633 4414992.296 60.716 429678.452 4414981.566 60.695 429691.770 4414970.195 60.739 429715.538 4414950.926 60.626 429721.949 4414945.438 60.626 429750.042 4414920.704 60.466 429754.353 4414917.561 60.446 429760.068 4414914.542 60.378 429765.441 4414912.204 60.315 429779.835 4414906.673 60.311 429789.354 4414902.513 60.242 429789.617 4414902.992 60.238 429808.318 4414890.542 60.077 429808.680 4414890.124 60.065,,,,,,,,,
10,430226.103 4414604.349 58.226 430227.124 4414603.410 58.206 430229.177 4414600.733 58.163 430230.629 4414598.418 58.222 430231.553 4414596.206 58.235 430232.389 4414593.431 58.147 430232.552 4414591.632 58.170 430232.767 4414588.950 58.104 430232.552 4414586.622 58.164 430231.990 4414583.017 58.131 430231.213 4414580.760 58.126 430230.551 4414578.699 58.136 430229.932 4414576.723 58.143 430229.455 4414574.744 58.150 430228.890 4414571.702 58.176 430228.496 4414569.428 58.180 430228.092 4414567.300 58.208 430227.557 4414564.381 58.253 430227.185 4414562.352 58.286 430226.800 4414560.289 58.327 430226.398 4414558.089 58.371 430225.977 4414555.838 58.403 430225.592 4414553.812 58.425 430225.141 4414551.280 58.443 430224.763 4414549.239 58.482 430224.350 4414546.928 58.490 430223.996 4414544.957 58.501 430223.454 4414541.953 58.517 430223.000 4414539.474 58.535 430222.290 4414535.882 58.551 430221.658 4414532.778 58.569 430221.201 4414530.527 58.588 430220.809 4414528.464 58.606 430220.330 4414526.230 58.628 430219.920 4414524.233 58.647 430219.317 4414521.158 58.660 430218.884 4414519.028 58.670 430218.448 4414516.867 58.678 430217.942 4414514.333 58.685 430217.509 4414512.197 58.720 430217.010 4414509.680 58.721 430216.475 4414507.064 58.749 430215.990 4414504.680 58.744 430215.511 4414502.429 58.758 430214.962 4414499.646 58.752 430214.487 4414497.315 58.742 430214.068 4414495.283 58.743 430213.618 4414493.066 58.746 430213.126 4414490.575 58.714 430212.742 4414488.518 58.701 430212.273 4414486.305 58.712 430211.818 4414484.104 58.699 430211.219 4414481.453 58.739 430210.677 4414480.797 58.656 430209.596 4414480.454 58.680 430207.026 4414480.169 58.584 430202.099 4414460.231 58.651 430202.886 4414458.567 58.611 430203.733 4414456.477 58.582 430204.250 4414454.816 58.542 430204.649 4414452.445 58.528 430204.621 4414449.816 58.546 430204.326 4414447.264 58.497 430203.945 4414445.157 58.484 430203.488 4414442.959 58.482 430202.909 4414440.060 58.479 430202.335 4414437.342 58.456 430201.830 4414435.013 58.435 430201.106 4414431.625 58.406 430200.473 4414428.753 58.386 430199.988 4414426.723 58.371 430199.371 4414424.062 58.350 430198.863 4414421.968 58.329 430198.216 4414419.250 58.294 430197.595 4414416.892 58.282 430196.942 4414414.422 58.269 430196.411 4414412.369 58.230 430195.843 4414410.419 58.217 430195.119 4414407.892 58.179 430194.322 4414405.142 58.156 430193.558 4414402.656 58.128 430192.948 4414400.701 58.112 430188.145 4414386.650 58.000 430184.724 4414378.755 57.934 430183.874 4414376.779 57.897 430182.997 4414374.811 57.889 430182.123 4414372.902 57.874 430181.187 4414370.915 57.862 430180.037 4414368.506 57.842 430178.933 4414366.254 57.785 430177.757 4414363.722 57.802 430176.170 4414360.910 57.755 430172.806 4414354.732 57.724 430171.675 4414352.744 57.709 430170.554 4414350.844 57.679 430169.303 4414348.808 57.665 430168.152 4414346.906 57.647 430166.558 4414344.389 57.622 430165.253 4414342.388 57.607 430164.141 4414340.691 57.599 430162.890 4414338.849 57.582 430161.642 4414337.047 57.560 430160.450 4414335.330 57.545 430159.215 4414333.579 57.524 430157.721 4414331.507 57.503 430156.483 4414329.806 57.491 430154.379 4414327.003 57.470 430152.962 4414325.187 57.445 430151.524 4414323.435 57.435 430150.011 4414321.520 57.404 430148.684 4414319.922 57.387 430147.198 4414318.172 57.365 430145.812 4414316.573 57.341 430144.327 4414314.904 57.327 430142.951 4414313.336 57.311 430141.179 4414311.380 57.291 430139.575 4414309.649 57.277 430137.953 4414307.911 57.253 430136.542 4414306.453 57.239 430135.059 4414304.946 57.224 430133.453 4414303.346 57.206 430125.320 4414295.668 57.141 430123.799 4414294.277 57.145 430121.348 4414292.127 57.130 430118.527 4414289.705 57.133 430116.653 4414288.106 57.163 430115.082 4414286.834 57.181 430113.184 4414285.304 57.215 430111.508 4414284.003 57.245 430109.860 4414282.762 57.279 430107.998 4414281.420 57.353,,,,,,,,,
11,429837.869 4414846.598 59.613 429839.524 4414847.261 59.538 429841.190 4414847.725 59.565 429843.150 4414847.911 59.584 429845.115 4414848.024 59.658 429848.285 4414847.836 59.614 429850.205 4414847.397 59.540 429853.209 4414845.324 59.486 429855.060 4414844.063 59.473 429856.844 4414842.845 59.459 429858.582 4414841.661 59.441 429860.577 4414840.296 59.421 429863.195 4414838.521 59.410 429865.125 4414837.218 59.402 429866.827 4414836.064 59.387 429868.719 4414834.785 59.374 429870.450 4414833.596 59.366 429872.278 4414832.340 59.352 429874.137 4414831.069 59.344 429875.827 4414829.922 59.326 429877.853 4414828.547 59.310 429879.627 4414827.328 59.304 429881.405 4414826.126 59.286 429883.247 4414824.868 59.263 429885.052 4414823.622 59.250 429886.824 4414822.441 59.223 429888.527 4414821.253 59.211 429890.219 4414820.116 59.193 429891.950 4414818.918 59.177 429893.691 4414817.722 59.150 429895.527 4414816.457 59.143 429897.293 4414815.262 59.127 429899.218 4414813.955 59.110 429900.956 4414812.777 59.091 429902.646 4414811.634 59.069 429904.556 4414810.327 59.056 429907.062 4414808.633 59.031 429909.519 4414807.002 59.067 429917.134 4414801.817 58.986 429925.426 4414796.134 58.909 429941.332 4414785.369 58.773 429956.550 4414774.926 58.576 429979.871 4414759.107 58.443 429995.258 4414748.628 58.331 430008.863 4414739.339 58.283 430015.437 4414734.831 58.194 430017.701 4414733.180 58.165 430020.087 4414730.841 58.170 430021.416 4414729.008 58.177 430022.253 4414727.046 58.139 430023.057 4414724.234 58.101 430023.281 4414722.136 58.103 430023.194 4414720.206 58.132 430021.564 4414712.728 58.106 430034.430 4414705.588 58.069 430035.654 4414708.644 58.030 430037.198 4414710.230 58.118 430039.865 4414712.414 58.082 430042.606 4414713.321 58.091 430044.815 4414713.334 58.102 430047.081 4414712.775 58.104 430050.103 4414711.251 58.097 430051.770 4414710.132 58.106 430053.465 4414708.967 58.107 430055.340 4414707.703 58.103 430057.071 4414706.533 58.092 430059.254 4414705.043 58.095 430061.058 4414703.811 58.098 430062.876 4414702.565 58.106 430064.551 4414701.443 58.104 430066.409 4414700.188 58.104 430068.181 4414698.987 58.101 430070.034 4414697.724 58.104 430072.004 4414696.389 58.095 430073.671 4414695.263 58.093 430075.444 4414694.059 58.099 430077.133 4414692.898 58.094 430079.707 4414691.151 58.100 430081.434 4414689.994 58.091 430083.188 4414688.805 58.095 430084.975 4414687.621 58.097 430087.247 4414686.142 58.078 430089.510 4414684.701 58.079 430091.208 4414683.624 58.087 430093.015 4414682.483 58.088 430094.811 4414681.364 58.090 430096.574 4414680.206 58.089 430098.420 4414679.009 58.070 430100.235 4414677.865 58.070 430102.066 4414676.752 58.070 430103.788 4414675.671 58.074 430105.483 4414674.569 58.078 430107.301 4414673.434 58.094 430109.326 4414672.187 58.104 430111.130 4414671.067 58.110 430112.873 4414670.006 58.117 430114.762 4414668.856 58.119 430116.525 4414667.787 58.122 430118.277 4414666.732 58.107 430121.339 4414664.966 58.126 430123.730 4414663.485 58.139 430125.618 4414662.345 58.147 430127.780 4414661.064 58.148 430130.055 4414659.726 58.153 430131.829 4414658.695 58.152 430133.745 4414657.585 58.153 430135.771 4414656.414 58.166 430137.507 4414655.415 58.162 430139.589 4414654.226 58.169 430141.858 4414652.941 58.178 430143.756 4414651.874 58.194 430145.678 4414650.791 58.199 430153.020 4414646.758 58.225 430160.475 4414642.751 58.256 430170.982 4414636.652 58.267 430173.887 4414634.672 58.223 430175.842 4414633.404 58.223 430177.736 4414632.174 58.208 430179.540 4414630.988 58.234 430181.586 4414629.702 58.229 430184.622 4414627.692 58.252 430187.244 4414626.227 58.248 430189.037 4414625.198 58.255 430190.819 4414624.208 58.258 430193.061 4414622.987 58.256 430194.837 4414622.028 58.249 430197.328 4414620.639 58.255 430199.565 4414619.412 58.247 430201.358 4414618.416 58.245 430203.514 4414617.218 58.225 430205.890 4414615.918 58.175 430208.303 4414614.603 58.163 430210.107 4414613.611 58.148 430212.028 4414612.554 58.165 430213.842 4414611.561 58.172 430215.807 4414610.482 58.177 430217.692 4414609.447 58.186 430219.740 4414608.317 58.196 430221.522 4414607.327 58.199 430224.971 4414605.392 58.248 430225.872 4414604.562 58.230,,,,,,,,,
12,429752.977 4414362.600 58.532 429751.534 4414363.403 58.449 429749.172 4414365.170 58.441 429748.222 4414366.121 58.473 429746.649 4414368.138 58.485 429745.045 4414370.672 58.503 429743.446 4414373.966 58.488 429742.833 4414375.534 58.489 429742.174 4414378.860 58.573 429742.104 4414381.263 58.567 429742.168 4414382.391 58.545 429742.270 4414384.500 58.553 429742.682 4414387.437 58.573 429743.080 4414389.440 58.596 429743.555 4414391.799 58.603 429744.157 4414394.786 58.610 429744.562 4414396.777 58.616 429745.158 4414399.721 58.626 429745.560 4414401.701 58.639 429745.969 4414403.787 58.650 429746.391 4414405.823 58.663 429746.848 4414408.104 58.672 429748.308 4414415.145 58.763 429748.633 4414416.768 58.769 429749.078 4414418.852 58.754 429751.602 4414431.456 58.841 429752.212 4414434.508 58.843 429752.582 4414436.754 58.856 429752.974 4414444.220 58.938 429753.579 4414455.371 58.989 429753.769 4414460.290 59.116 429754.919 4414465.496 59.049 429755.781 4414469.701 59.040 429756.191 4414471.738 59.080 429758.625 4414483.733 59.130 429759.058 4414485.829 59.131 429759.524 4414488.153 59.146 429759.930 4414490.170 59.149 429760.413 4414492.589 59.158 429761.882 4414499.873 59.226 429762.353 4414502.105 59.237 429762.750 4414504.125 59.239 429763.365 4414506.479 59.204 429764.601 4414509.954 59.298 429766.561 4414512.587 59.330 429769.593 4414515.800 59.362 429772.283 4414517.453 59.358 429776.287 4414519.272 59.364 429778.678 4414531.333 59.411 429776.317 4414533.856 59.465 429773.859 4414537.050 59.528 429772.426 4414540.173 59.507 429771.756 4414542.837 59.532 429771.488 4414545.713 59.543 429771.872 4414549.193 59.517 429772.849 4414553.942 59.554 429773.286 4414556.104 59.580 429773.731 4414558.334 59.582 429774.168 4414560.417 59.598 429774.597 4414562.539 59.614 429775.003 4414564.563 59.611 429775.429 4414566.700 59.639 429775.895 4414569.007 59.641 429776.327 4414571.134 59.653 429776.752 4414573.261 59.660 429777.176 4414575.385 59.674 429777.600 4414577.455 59.680 429778.002 4414579.482 59.686 429778.420 4414581.597 59.690 429778.870 4414583.781 59.691 429779.287 4414585.759 59.708 429779.770 4414588.221 59.703 429780.233 4414590.460 59.712 429780.641 4414592.561 59.721 429781.103 4414594.821 59.726 429781.538 4414596.921 59.731 429782.063 4414599.549 59.729 429782.500 4414601.778 59.733 429783.012 4414604.241 59.744 429783.601 4414607.192 59.751 429784.075 4414609.561 59.755 429784.669 4414612.562 59.758 429785.116 4414614.795 59.763 429785.608 4414617.203 59.761 429786.134 4414619.767 59.775 429786.593 4414622.020 59.776 429787.027 4414624.159 59.766 429787.464 4414626.278 59.774 429787.916 4414628.540 59.770 429788.517 4414631.515 59.774 429788.938 4414633.568 59.775 429789.569 4414636.705 59.778 429790.018 4414638.931 59.779 429790.454 4414641.082 59.781 429790.873 4414643.194 59.784 429791.289 4414645.241 59.786 429791.750 4414647.524 59.787 429792.192 4414649.826 59.770 429792.639 4414651.948 59.776 429793.098 4414654.240 59.779 429793.502 4414656.309 59.769 429794.050 4414659.032 59.765 429794.492 4414661.149 59.766 429795.000 4414663.713 59.766 429795.474 4414665.956 59.773 429795.907 4414668.110 59.772 429796.528 4414671.212 59.767 429796.963 4414673.362 59.762 429797.420 4414675.653 59.765 429797.919 4414678.064 59.774 429798.347 4414680.278 59.748 429798.844 4414682.681 59.753 429799.442 4414685.741 59.736 429799.872 4414687.872 59.731 429800.387 4414690.325 59.730 429800.868 4414692.712 59.715 429801.287 4414694.892 59.706 429802.476 4414700.158 59.683 429803.500 4414702.266 59.673 429805.407 4414704.066 59.512 429807.408 4414705.305 59.627 429808.972 4414705.965 59.584 429811.951 4414705.448 59.507 429815.723 4414719.808 59.528 429812.518 4414722.191 59.515 429810.140 4414724.707 59.559 429808.778 4414727.136 59.553 429808.722 4414729.727 59.589 429808.840 4414732.128 59.608 429809.119 4414733.761 59.546 429809.563 4414736.139 59.520 429810.055 4414738.469 59.493 429810.509 4414740.626 59.495 429810.949 4414742.763 59.510 429811.424 4414745.085 59.510 429811.877 4414747.364 59.516 429812.321 4414749.469 59.534 429812.757 4414751.655 59.569 429813.198 4414753.876 59.589 429813.658 4414756.068 59.644 429814.109 4414758.302 59.689 429814.538 4414760.407 59.734 429814.919 4414762.290 59.766 429815.352 4414764.458 59.820 429815.796 4414766.650 59.865 429816.246 4414768.866 59.908 429816.761 4414771.391 59.965 429817.194 4414773.600 60.023 429817.659 4414775.831 60.061 429818.128 4414778.129 60.114 429818.542 4414780.246 60.151 429818.981 4414782.271 60.174 429819.386 4414784.394 60.159 429819.855 4414786.727 60.167 429820.275 4414788.827 60.153 429820.748 4414791.125 60.137 429821.174 4414793.227 60.127 429821.610 4414795.360 60.126 429822.140 4414797.954 60.115 429822.638 4414800.395 60.103 429823.105 4414802.710 60.100 429823.520 4414804.794 60.086 429823.995 4414807.127 60.082 429824.466 4414809.447 60.079 429824.928 4414811.682 60.071 429825.347 4414813.795 60.061 429825.781 4414815.950 60.053 429826.205 4414818.043 60.045 429826.634 4414820.106 60.041 429827.073 4414822.306 60.045 429827.488 4414824.352 60.027 429827.928 4414826.474 60.019 429828.365 4414828.581 60.014 429828.819 4414830.779 60.007 429829.264 4414832.917 59.985 429829.779 4414835.271 59.975 429830.296 4414837.736 59.937 429830.731 4414839.732 59.912 429831.182 4414841.498 59.898 429832.352 4414842.962 59.840 429834.240 4414844.408 59.798 429837.063 4414846.275 59.649 429837.724 4414846.540 59.619,,,,,,,,,
13,430224.443 4414632.222 58.222 430223.612 4414632.411 58.224 430221.988 4414632.933 58.173 430220.094 4414633.842 58.197 430217.922 4414635.044 58.203 430216.131 4414636.000 58.212 430214.373 4414636.984 58.219 430212.140 4414638.230 58.234 430209.915 4414639.438 58.241 430207.359 4414640.846 58.241 430205.152 4414642.041 58.235 430203.232 4414643.091 58.232 430200.604 4414644.538 58.233 430198.583 4414645.645 58.230 430196.436 4414646.812 58.230 430194.432 4414647.923 58.229 430192.540 4414648.961 58.226 430190.673 4414650.007 58.218 430188.851 4414651.006 58.195 430186.897 4414652.074 58.210 430185.024 4414653.103 58.209 430183.216 4414654.093 58.209 430181.154 4414655.224 58.200 430179.121 4414656.317 58.195 430176.955 4414657.512 58.193 430175.028 4414658.580 58.190 430173.095 4414659.628 58.187 430171.115 4414660.714 58.183 430168.999 4414661.886 58.176 430167.086 4414662.938 58.175 430165.144 4414664.001 58.167 430163.306 4414665.017 58.155 430161.423 4414666.059 58.140 430159.484 4414667.144 58.121 430157.559 4414668.204 58.133 430155.771 4414669.211 58.126 430154.445 4414669.964 58.124 430152.579 4414671.005 58.113 430149.915 4414672.513 58.102 430147.889 4414673.661 58.094 430145.869 4414674.824 58.090 430143.205 4414676.380 58.089 430141.287 4414677.483 58.080 430139.359 4414678.623 58.072 430137.634 4414679.653 58.066 430135.813 4414680.760 58.059 430134.015 4414681.831 58.049 430132.105 4414682.978 58.042 430130.288 4414684.081 58.022 430128.393 4414685.202 58.038 430126.669 4414686.242 58.035 430124.772 4414687.383 58.030 430123.004 4414688.451 58.030 430121.030 4414689.665 58.033 430119.134 4414690.828 58.026 430116.632 4414692.374 58.027 430114.713 4414693.584 58.038 430112.692 4414694.850 58.027 430110.764 4414696.054 58.024 430108.975 4414697.190 58.019 430106.430 4414698.791 58.011 430104.433 4414700.109 58.012 430102.695 4414701.255 58.008 430100.131 4414702.935 57.979 430098.249 4414704.180 57.973 430096.430 4414705.353 57.992 430094.680 4414706.490 57.994 430092.783 4414707.726 58.000 430091.068 4414708.868 58.004 430089.208 4414710.096 58.008 430087.534 4414711.234 58.012 430085.810 4414712.388 58.008 430084.133 4414713.541 58.016 430082.448 4414714.677 58.015 430080.310 4414716.130 58.024 430078.432 4414717.411 58.024 430076.632 4414718.637 58.022 430074.868 4414719.819 58.012 430072.317 4414721.552 58.016 430070.265 4414722.941 57.996 430068.059 4414724.450 58.013 430066.237 4414725.696 58.013 430063.790 4414727.369 58.018 430062.010 4414728.581 58.020 430060.212 4414729.781 58.026 430058.479 4414730.950 58.040 430056.589 4414732.248 58.045 430054.711 4414733.556 58.051 430053.017 4414734.702 58.051 430049.944 4414736.802 58.176 430048.312 4414738.234 58.080 430046.253 4414740.666 58.080 430045.204 4414742.772 58.080 430044.624 4414744.593 58.080 430044.276 4414746.386 58.066,,,,,,,,,
14,429155.900 4415121.311 62.111 429159.992 4415126.227 62.071 429163.579 4415131.317 62.025 429170.529 4415140.664 61.964 429175.423 4415148.104 61.901 429185.420 4415166.065 61.821 429191.542 4415179.288 61.755 429194.713 4415187.544 61.617 429197.405 4415195.874 61.630 429199.694 4415204.439 61.596 429201.651 4415213.015 61.568 429208.680 4415247.491 61.554 429212.828 4415267.501 61.324 429218.664 4415296.248 61.223 429221.509 4415310.552 61.211 429229.086 4415347.802 61.110 429233.081 4415367.693 61.051 429238.874 4415396.441 61.011 429244.668 4415425.026 60.988 429251.710 4415460.629 61.026 429257.212 4415487.063 61.071,,,,,,,,,
15,429256.743 4415488.017 61.076 429255.141 4415479.573 61.062 429246.401 4415437.058 60.981 429238.894 4415399.435 60.971 429229.953 4415355.944 61.088 429229.265 4415352.580 61.091 429228.619 4415349.587 61.107 429228.073 4415346.353 61.137 429227.439 4415343.696 61.112 429227.045 4415341.344 61.131 429226.584 4415339.052 61.146 429226.011 4415335.878 61.158 429225.599 4415333.833 61.167 429221.299 4415313.503 61.210 429220.593 4415309.692 61.225 429220.142 4415307.371 61.239 429219.695 4415305.421 61.236 429219.248 4415303.185 61.240 429218.757 4415300.947 61.241 429217.861 4415296.056 61.228 429217.344 4415293.683 61.250 429216.857 4415291.063 61.262 429216.296 4415288.710 61.276 429215.719 4415285.739 61.288 429215.217 4415283.371 61.295 429214.135 4415277.624 61.310 429213.678 4415275.387 61.322 429213.102 4415272.274 61.334 429212.648 4415270.215 61.344 429212.282 4415268.122 61.342 429205.278 4415233.162 61.504 429199.139 4415204.403 61.656 429198.386 4415201.491 61.689 429197.555 4415198.032 61.689 429194.269 4415187.783 61.623 429191.153 4415179.567 61.725 429187.511 4415171.517 61.798 429184.751 4415165.914 61.820 429176.349 4415150.892 61.917 429171.741 4415143.541 61.942 429166.601 4415136.173 61.988 429163.098 4415131.452 62.036 429159.734 4415126.723 62.069 429155.643 4415122.110 62.086,,,,,,,,,
16,429405.912 4414418.143 59.454 429390.127 4414422.745 59.558 429388.026 4414423.581 59.562 429386.005 4414424.275 59.568 429383.968 4414425.003 59.567 429382.014 4414425.697 59.574 429380.119 4414426.407 59.580 429378.115 4414427.164 59.589 429376.117 4414427.938 59.600 429374.109 4414428.770 59.607 429372.260 4414429.536 59.615 429370.133 4414430.436 59.629 429368.208 4414431.261 59.643 429366.081 4414432.206 59.647 429363.921 4414433.185 59.653 429361.823 4414434.145 59.667 429359.749 4414435.122 59.684 429357.885 4414436.034 59.693 429355.173 4414437.386 59.704 429352.893 4414438.567 59.712 429350.979 4414439.580 59.719 429349.053 4414440.621 59.732 429347.043 4414441.746 59.749 429345.192 4414442.785 59.760 429343.141 4414443.948 59.766 429341.694 4414444.760 59.763 429339.041 4414446.350 59.780 429337.184 4414447.492 59.792 429334.637 4414449.129 59.805 429332.810 4414450.307 59.816 429331.061 4414451.445 59.825 429329.323 4414452.581 59.832 429326.903 4414454.217 59.848 429324.529 4414455.861 59.865 429322.688 4414457.163 59.875 429320.979 4414458.406 59.884 429319.340 4414459.613 59.902 429317.589 4414460.931 59.917 429315.229 4414462.744 59.933 429313.393 4414464.194 59.940 429311.814 4414465.445 59.939 429310.212 4414466.744 59.922 429307.962 4414468.612 59.951 429306.292 4414470.033 59.974 429304.649 4414471.443 59.990 429302.860 4414473.022 60.005 429301.331 4414474.390 60.014 429299.488 4414476.070 60.024 429297.960 4414477.505 60.031 429296.446 4414478.939 60.044 429294.813 4414480.514 60.052 429293.187 4414482.114 60.064 429291.076 4414484.214 60.074 429289.560 4414485.746 60.082 429287.922 4414487.437 60.090 429286.490 4414488.922 60.105 429284.974 4414490.519 60.121 429283.470 4414492.197 60.129 429282.029 4414493.825 60.135 429280.596 4414495.477 60.136 429278.747 4414497.630 60.150 429277.042 4414499.661 60.164 429275.659 4414501.345 60.178 429274.378 4414502.917 60.190 429272.468 4414505.302 60.205 429271.222 4414506.894 60.213 429269.922 4414508.592 60.221 429268.692 4414510.210 60.236 429267.311 4414512.084 60.237 429266.133 4414513.703 60.236 429264.966 4414515.337 60.246 429263.561 4414517.359 60.265 429262.292 4414519.184 60.274 429261.015 4414521.059 60.278 429259.739 4414522.954 60.299 429258.271 4414525.119 60.316 429257.046 4414526.936 60.328 429255.700 4414528.940 60.336 429254.451 4414530.775 60.350 429253.226 4414532.587 60.358 429251.987 4414534.418 60.371 429250.416 4414536.745 60.385 429249.272 4414538.439 60.394 429247.925 4414540.434 60.407 429246.788 4414542.121 60.416 429245.952 4414543.365 60.427 429244.799 4414545.062 60.440 429243.646 4414546.779 60.447 429242.478 4414548.503 60.460 429240.771 4414551.031 60.472 429239.626 4414552.730 60.475 429238.377 4414554.596 60.487 429237.201 4414556.319 60.499 429236.006 4414558.092 60.510 429234.656 4414560.093 60.526 429231.779 4414562.475 60.567 429230.592 4414564.339 60.561 429229.213 4414566.361 60.558 429228.046 4414568.064 60.559 429226.791 4414569.890 60.565 429225.480 4414571.808 60.572 429224.303 4414573.498 60.580 429223.111 4414575.187 60.589 429221.916 4414576.905 60.596 429220.198 4414579.426 60.606 429218.856 4414581.417 60.617 429217.489 4414583.393 60.625 429216.263 4414585.124 60.632 429215.015 4414586.930 60.643 429213.548 4414589.027 60.655 429212.385 4414590.699 60.662 429211.594 4414591.856 60.676 429212.093 4414592.978 60.678 429211.904 4414593.754 60.685 429210.736 4414595.485 60.700 429209.584 4414597.189 60.708 429208.253 4414599.164 60.716 429206.536 4414601.709 60.734 429204.941 4414604.066 60.749 429203.655 4414605.978 60.761 429201.902 4414608.571 60.778 429200.700 4414610.359 60.784 429199.393 4414612.306 60.784 429197.712 4414614.792 60.799 429196.548 4414616.508 60.809 429194.854 4414619.015 60.824 429193.582 4414620.899 60.832 429192.445 4414622.585 60.841 429191.319 4414624.242 60.850 429190.143 4414625.981 60.861 429188.826 4414627.931 60.870 429187.622 4414629.710 60.880 429186.200 4414631.804 60.891 429184.865 4414633.783 60.905 429183.640 4414635.592 60.917 429182.396 4414637.434 60.926 429181.150 4414639.272 60.933 429179.902 4414641.108 60.938 429178.757 4414642.785 60.937 429177.397 4414644.783 60.926 429176.261 4414646.478 60.945 429174.990 4414648.386 60.995 429173.683 4414650.330 61.014 429172.467 4414652.116 61.028 429171.110 4414654.126 61.035 429169.964 4414655.826 61.040 429168.793 4414657.560 61.047 429166.532 4414660.924 61.057 429165.328 4414662.696 61.062 429164.114 4414664.497 61.070 429162.557 4414666.806 61.086 429161.422 4414668.485 61.101 429159.312 4414671.614 61.110 429157.640 4414674.064 61.122 429156.432 4414675.843 61.122 429155.192 4414677.689 61.134 429154.036 4414679.406 61.158 429152.878 4414681.129 61.172 429151.234 4414683.559 61.184 429150.006 4414685.353 61.198 429148.868 4414687.057 61.207 429147.631 4414688.888 61.216 429146.483 4414690.578 61.224 429145.335 4414692.278 61.229 429143.946 4414694.329 61.235 429142.757 4414696.088 61.243 429141.516 4414697.933 61.257 429140.358 4414699.642 61.275 429139.155 4414701.415 61.285 429137.418 4414703.994 61.297 429136.114 4414705.931 61.312 429134.848 4414707.806 61.318 429133.570 4414709.707 61.325 429132.367 4414711.473 61.335 429131.105 4414713.344 61.350 429129.958 4414715.054 61.357 429128.747 4414716.852 61.370 429127.121 4414719.254 61.381 429125.951 4414720.979 61.393 429123.865 4414724.069 61.407 429122.621 4414725.889 61.418 429121.444 4414727.632 61.432 429120.238 4414729.425 61.450 429118.542 4414731.945 61.477 429117.264 4414733.838 61.487 429116.085 4414735.586 61.493 429114.890 4414737.338 61.503 429113.760 4414739.011 61.516 429112.577 4414740.763 61.524 429111.433 4414742.448 61.528 429109.613 4414745.136 61.544 429108.380 4414746.964 61.551 429107.223 4414748.686 61.556 429105.995 4414750.513 61.564 429104.762 4414752.325 61.567 429103.466 4414754.254 61.577 429102.254 4414756.041 61.582 429101.066 4414757.806 61.593 429099.927 4414759.519 61.607 429098.699 4414761.415 61.623 429097.093 4414763.894 61.625 429095.971 4414765.630 61.626 429094.689 4414767.611 61.641 429093.014 4414770.213 61.656 429088.781 4414775.307 61.698 429087.591 4414777.432 61.714 429085.080 4414782.348 61.735 429080.177 4414792.330 61.808 429074.338 4414806.046 61.916 429074.658 4414806.349 61.876 429074.919 4414806.816 61.878 429075.056 4414807.496 61.882 429074.410 4414809.449 61.901 429073.695 4414811.428 61.902 429072.680 4414814.343 61.908 429071.788 4414817.000 61.907 429071.079 4414819.138 61.918 429070.430 4414821.215 61.930 429069.830 4414823.166 61.946 429069.236 4414825.104 61.962 429068.554 4414827.585 61.980 429067.974 4414829.734 61.988 429067.246 4414832.528 62.004 429066.679 4414834.858 62.009 429066.145 4414837.091 62.014 429065.440 4414840.172 62.024 429064.903 4414842.627 62.028 429064.489 4414844.670 62.040 429064.097 4414846.753 62.056 429063.702 4414848.945 62.068 429063.332 4414851.131 62.079 429062.973 4414853.303 62.090 429062.657 4414855.298 62.090 429062.213 4414858.363 62.104 429061.871 4414860.826 62.112 429061.549 4414863.930 62.141 429061.338 4414865.944 62.152 429061.121 4414868.065 62.159 429060.910 4414870.306 62.167 429060.706 4414872.500 62.170 429060.506 4414874.624 62.176 429060.308 4414876.814 62.185 429060.104 4414879.025 62.195 429059.896 4414881.262 62.206 429059.712 4414883.270 62.215 429059.513 4414885.466 62.226 429059.298 4414887.701 62.237 429059.107 4414889.733 62.246 429058.838 4414892.676 62.259 429058.640 4414894.879 62.271 429058.441 4414896.995 62.279 429058.247 4414898.996 62.282 429057.972 4414901.959 62.290 429057.775 4414904.105 62.298 429057.573 4414906.185 62.310 429057.361 4414908.543 62.323 429057.083 4414911.279 62.342 429056.837 4414913.564 62.357 429056.580 4414915.979 62.367 429056.354 4414917.969 62.381 429056.104 4414920.035 62.393 429055.850 4414922.034 62.402 429055.569 4414924.130 62.413 429055.275 4414926.280 62.422 429054.940 4414928.451 62.428 429054.609 4414930.554 62.437 429054.154 4414933.406 62.441 429053.807 4414935.496 62.453 429053.400 4414937.730 62.462 429053.031 4414939.801 62.468 429052.623 4414942.007 62.482 429052.250 4414944.037 62.496 429051.839 4414946.085 62.510 429051.170 4414949.144 62.531 429050.706 4414951.182 62.545 429050.210 4414953.329 62.542 429049.728 4414955.357 62.550 429049.155 4414957.759 62.550 429048.551 4414960.189 62.563 429048.026 4414962.230 62.577 429047.478 4414964.293 62.595 429046.839 4414966.638 62.609 429046.289 4414968.636 62.615 429045.711 4414970.704 62.612 429044.802 4414973.714 62.618 429044.187 4414975.715 62.607 429043.547 4414977.867 62.643 429042.919 4414979.904 62.652 429042.291 4414981.827 62.664 429041.609 4414983.871 62.677 429040.930 4414985.893 62.695 429040.249 4414987.844 62.709 429039.587 4414989.762 62.715 429038.750 4414992.152 62.726 429038.015 4414994.132 62.739 429037.276 4414996.107 62.741 429036.543 4414998.007 62.748 429035.354 4415001.049 62.764 429034.513 4415003.136 62.773 429033.689 4415005.136 62.784 429032.915 4415007.026 62.792 429031.885 4415009.477 62.811 429030.631 4415012.398 62.825 429027.448 4415019.574 62.834,,,,,,,,,
17,429808.835 4414890.778 60.079 429808.301 4414891.130 60.081 429805.741 4414892.911 60.111 429803.189 4414894.673 60.137 429801.372 4414895.889 60.154 429798.802 4414897.621 60.170 429797.086 4414898.781 60.182 429795.378 4414899.939 60.193 429793.583 4414901.142 60.208 429790.692 4414903.068 60.237 429788.803 4414904.355 60.258 429786.981 4414905.582 60.280 429785.078 4414906.855 60.301 429782.648 4414908.491 60.320 429780.990 4414909.623 60.333 429779.108 4414910.915 60.345 429777.080 4414912.272 60.356 429775.265 4414913.480 60.368 429773.300 4414914.766 60.381 429771.510 4414915.988 60.388 429769.570 4414917.300 60.391 429767.913 4414918.424 60.404 429766.029 4414919.707 60.423 429764.277 4414920.902 60.434 429762.528 4414922.051 60.452 429760.208 4414923.633 60.480 429758.188 4414925.024 60.494 429756.020 4414926.543 60.509 429753.602 4414928.298 60.524 429751.835 4414929.539 60.530 429749.849 4414930.793 60.531 429748.055 4414931.914 60.538 429745.903 4414933.298 60.552 429743.880 4414934.653 60.558 429742.071 4414935.870 60.565 429740.402 4414936.987 60.574 429738.506 4414938.246 60.583 429736.802 4414939.398 60.582 429734.354 4414941.045 60.591 429732.576 4414942.233 60.601 429730.010 4414943.937 60.620 429728.056 4414945.257 60.630 429726.059 4414946.603 60.640 429724.145 4414947.881 60.643 429722.043 4414949.283 60.644 429720.244 4414950.488 60.646 429718.363 4414951.754 60.643 429716.523 4414952.964 60.644 429714.634 4414954.210 60.651 429712.904 4414955.358 60.651 429711.027 4414956.637 60.658 429708.509 4414958.406 60.660 429700.361 4414964.093 60.679 429698.670 4414965.461 60.679 429697.020 4414966.789 60.683 429695.327 4414968.158 60.684 429692.935 4414970.093 60.686 429691.093 4414971.618 60.685 429689.421 4414973.000 60.686 429687.069 4414974.972 60.688 429684.821 4414976.895 60.698 429683.229 4414978.256 60.702 429681.086 4414980.096 60.708 429679.236 4414981.722 60.711 429677.644 4414983.130 60.717 429676.065 4414984.538 60.725 429674.402 4414986.020 60.732 429672.864 4414987.417 60.739 429671.046 4414989.074 60.740 429669.486 4414990.514 60.740 429667.958 4414991.942 60.741 429666.394 4414993.403 60.738 429663.932 4414995.754 60.733 429662.393 4414997.230 60.733 429660.781 4414998.786 60.736 429658.786 4415000.725 60.744 429657.271 4415002.200 60.748 429655.620 4415003.798 60.744 429653.876 4415005.609 60.738 429652.315 4415007.189 60.736 429650.743 4415008.804 60.730 429649.317 4415010.295 60.725 429647.687 4415012.007 60.721 429646.069 4415013.745 60.721 429644.585 4415015.351 60.722 429643.055 4415017.063 60.720 429641.406 4415018.916 60.716 429639.895 4415020.630 60.712 429638.409 4415022.351 60.704 429635.069 4415026.291 60.689 429632.262 4415029.555 60.676 429627.644 4415035.032 60.651 429622.252 4415041.457 60.633 429617.813 4415046.859 60.633 429614.380 4415051.119 60.613 429610.701 4415055.829 60.592 429607.604 4415059.981 60.618 429602.542 4415066.734 60.539 429601.066 4415068.806 60.535 429599.808 4415070.601 60.541 429598.544 4415072.416 60.540 429597.344 4415074.174 60.532 429595.548 4415076.792 60.522 429594.237 4415078.747 60.509 429592.634 4415081.146 60.499 429591.515 4415082.861 60.493 429590.331 4415084.645 60.488 429588.920 4415086.848 60.488 429587.449 4415089.146 60.477 429586.229 4415091.080 60.469 429584.538 4415093.800 60.462 429583.426 4415095.477 60.458 429582.443 4415097.235 60.448 429581.303 4415099.118 60.441 429580.084 4415101.159 60.436 429579.034 4415102.927 60.429 429578.005 4415104.669 60.422 429576.596 4415107.119 60.409 429575.590 4415108.870 60.404 429574.483 4415110.818 60.392 429573.147 4415113.180 60.381 429572.045 4415115.184 60.371 429571.023 4415117.030 60.366 429569.931 4415119.063 60.356 429568.866 4415121.029 60.346 429568.188 4415122.309 60.339 429567.254 4415124.107 60.328 429565.930 4415126.540 60.321 429564.843 4415128.686 60.316 429563.843 4415130.690 60.316 429562.920 4415132.520 60.315 429561.802 4415134.754 60.310 429560.783 4415136.821 60.308 429559.886 4415138.659 60.300 429558.778 4415140.971 60.290 429557.876 4415142.864 60.283 429556.942 4415144.826 60.274 429556.101 4415146.642 60.267 429555.248 4415148.505 60.261 429554.393 4415150.405 60.257 429553.345 4415152.737 60.246 429552.306 4415155.122 60.239 429551.380 4415157.181 60.231 429550.293 4415159.727 60.221 429549.353 4415161.934 60.210 429548.480 4415163.993 60.198 429547.538 4415166.185 60.188 429546.688 4415168.247 60.181 429545.848 4415170.194 60.178 429545.064 4415172.068 60.173 429544.147 4415174.244 60.165 429543.355 4415176.151 60.160 429542.330 4415178.588 60.152 429541.204 4415181.297 60.146 429540.410 4415183.189 60.139 429539.373 4415185.239 60.129 429538.451 4415187.360 60.120 429537.766 4415189.261 60.125 429537.047 4415191.260 60.117 429536.281 4415193.138 60.119 429535.453 4415195.139 60.119 429534.298 4415197.911 60.119 429533.497 4415199.876 60.121 429532.655 4415201.898 60.118 429531.824 4415203.915 60.108 429530.950 4415206.002 60.095 429529.817 4415208.735 60.080 429528.999 4415210.679 60.075 429528.073 4415212.909 60.068 429523.823 4415223.114 60.064 429516.206 4415241.332 60.085 429512.270 4415250.311 60.034 429508.717 4415258.027 60.020 429506.061 4415263.293 59.993 429502.010 4415271.085 60.003 429497.585 4415278.940 60.051 429492.371 4415287.465 60.072 429488.555 4415293.334 60.071 429485.180 4415298.279 60.068 429484.005 4415299.948 60.075 429482.807 4415301.650 60.080 429481.531 4415303.419 60.081 429480.287 4415305.132 60.085 429479.051 4415306.800 60.091 429477.639 4415308.664 60.098 429476.389 4415310.302 60.111 429474.929 4415312.204 60.124 429473.616 4415313.851 60.134 429472.171 4415315.662 60.141 429470.641 4415317.540 60.146 429469.166 4415319.334 60.152 429467.471 4415321.337 60.158 429466.129 4415322.886 60.164 429464.656 4415324.564 60.170 429461.593 4415328.001 60.184 429460.031 4415329.719 60.188 429457.980 4415331.918 60.196 429456.400 4415333.597 60.207 429454.841 4415335.221 60.218 429453.258 4415336.854 60.228 429451.706 4415338.423 60.234 429450.184 4415339.930 60.239 429448.499 4415341.577 60.242 429447.011 4415343.033 60.249 429445.528 4415344.452 60.251 429444.008 4415345.904 60.257 429442.393 4415347.413 60.264 429440.919 4415348.795 60.272 429439.117 4415350.476 60.284 429437.565 4415351.921 60.293 429436.026 4415353.342 60.304 429434.554 4415354.702 60.308 429432.700 4415356.423 60.315 429431.129 4415357.878 60.326 429429.568 4415359.321 60.331 429428.455 4415360.341 60.331 429426.810 4415361.860 60.331 429425.211 4415363.328 60.336 429423.622 4415364.792 60.345 429422.018 4415366.267 60.354 429420.179 4415367.948 60.369 429418.398 4415369.605 60.383 429416.251 4415371.580 60.394 429414.645 4415373.067 60.403 429413.111 4415374.488 60.409 429411.373 4415376.096 60.418 429409.433 4415377.891 60.424 429407.461 4415379.688 60.431 429405.734 4415381.256 60.450 429404.201 4415382.602 60.466 429402.233 4415384.490 60.461 429400.748 4415385.874 60.472 429398.465 4415387.972 60.495 429396.723 4415389.571 60.504 429395.176 4415390.988 60.506 429393.149 4415392.850 60.512 429391.339 4415394.526 60.516 429389.559 4415396.157 60.525 429387.890 4415397.692 60.541 429386.361 4415399.103 60.550 429384.452 4415400.875 60.557 429382.720 4415402.460 60.566 429380.482 4415404.531 60.579 429378.222 4415406.611 60.584 429376.552 4415408.148 60.589 429374.538 4415409.996 60.611 429372.734 4415411.656 60.629 429371.010 4415413.250 60.637 429369.429 4415414.690 60.647 429367.757 4415416.246 60.653 429366.251 4415417.629 60.662 429365.172 4415418.635 60.667 429363.089 4415420.543 60.674 429361.063 4415422.406 60.678 429358.979 4415424.332 60.684 429357.346 4415425.857 60.688 429355.810 4415427.243 60.692 429354.115 4415428.810 60.706 429352.574 4415430.225 60.712 429351.042 4415431.639 60.706 429349.336 4415433.189 60.726 429347.060 4415435.274 60.741 429345.322 4415436.887 60.764 429343.707 4415438.380 60.783 429341.942 4415440.000 60.780 429340.388 4415441.444 60.778 429338.614 4415443.084 60.789 429336.849 4415444.707 60.803 429334.628 4415446.768 60.797 429332.927 4415448.334 60.799 429330.461 4415450.599 60.825 429328.726 4415452.185 60.842 429327.181 4415453.610 60.854 429325.662 4415455.014 60.871 429324.087 4415456.456 60.888 429322.538 4415457.870 60.898 429320.830 4415459.454 60.911 429319.063 4415461.071 60.910 429316.702 4415463.206 60.919 429315.077 4415464.766 60.910 429313.457 4415466.244 60.915 429311.831 4415467.746 60.936 429309.712 4415469.687 60.954 429307.570 4415471.674 60.964 429305.875 4415473.224 60.967 429304.184 4415474.785 60.975 429302.603 4415476.254 60.981 429300.423 4415478.269 60.984 429298.136 4415480.351 60.996 429296.488 4415481.884 60.997 429294.967 4415483.272 61.006 429293.444 4415484.670 61.029 429291.400 4415486.555 61.048 429289.618 4415488.193 61.060 429287.799 4415489.876 61.065 429284.125 4415493.155 61.084,,,,,,,,,
18,429278.734 4415482.977 60.959 429288.956 4415474.132 60.882 429291.562 4415471.816 60.872 429293.394 4415470.125 60.856 429296.539 4415467.238 60.855 429305.475 4415458.999 60.814 429321.343 4415444.380 60.703 429326.483 4415439.628 60.675 429329.895 4415436.512 60.649 429332.962 4415433.650 60.609 429338.209 4415428.836 60.614 429358.121 4415410.507 60.535 429361.055 4415407.789 60.522 429369.614 4415399.910 60.461 429377.243 4415392.891 60.430 429380.910 4415389.493 60.408 429387.337 4415383.592 60.364 429395.031 4415376.503 60.335 429397.840 4415373.924 60.305 429405.180 4415367.133 60.289 429409.611 4415363.088 60.252 429411.805 4415361.041 60.237 429420.621 4415352.900 60.205 429425.034 4415348.835 60.175 429427.055 4415346.978 60.146 429430.929 4415343.427 60.142 429436.062 4415338.668 60.128 429439.696 4415335.234 60.122 429442.195 4415332.779 60.123 429446.663 4415328.247 60.110 429449.786 4415324.978 60.091 429451.129 4415323.556 60.099 429452.547 4415321.983 60.092 429453.963 4415320.386 60.076 429455.609 4415318.527 60.070 429456.970 4415316.999 60.070 429458.354 4415315.418 60.062 429460.258 4415313.198 60.046 429461.781 4415311.377 60.039 429463.161 4415309.694 60.040 429465.118 4415307.243 60.036 429466.668 4415305.295 60.033 429468.093 4415303.456 60.028 429469.366 4415301.793 60.023 429470.660 4415300.053 60.019 429471.996 4415298.242 60.011 429473.579 4415296.057 60.008 429475.138 4415293.880 60.006 429476.524 4415291.869 60.001 429477.672 4415290.199 59.978 429478.854 4415288.443 59.995 429480.167 4415286.490 59.998 429481.400 4415284.643 60.001 429482.541 4415282.872 60.003 429483.739 4415280.997 60.003 429485.068 4415278.874 60.000 429486.338 4415276.823 59.996 429487.529 4415274.857 59.994 429488.574 4415273.068 59.985 429489.609 4415271.235 59.975 429490.649 4415269.445 59.965 429491.647 4415267.644 59.961 429492.658 4415265.825 59.960 429494.202 4415262.993 59.953 429495.623 4415260.303 59.951 429496.553 4415258.413 59.941 429497.450 4415256.591 59.935 429498.528 4415254.384 59.896 429499.651 4415251.999 59.906 429501.266 4415248.582 59.919 429502.807 4415245.300 59.933 429504.048 4415242.557 59.941 429504.872 4415240.630 59.941 429506.143 4415237.625 59.942 429506.988 4415235.625 59.938 429507.832 4415233.574 59.939 429508.640 4415231.645 59.939 429509.479 4415229.638 59.943 429510.668 4415226.787 59.946 429511.480 4415224.842 59.939 429512.424 4415222.545 59.927 429513.288 4415220.506 59.913 429514.342 4415217.932 59.900 429515.205 4415215.876 59.900 429516.331 4415213.220 59.937 429517.514 4415210.377 59.962 429518.322 4415208.364 59.947 429519.617 4415205.253 59.964 429520.643 4415202.786 59.970 429521.464 4415200.825 59.971 429522.646 4415197.975 59.976 429523.662 4415195.517 59.973 429524.632 4415193.182 59.974 429525.544 4415190.973 59.971 429526.474 4415188.735 59.966 429527.254 4415186.855 59.961 429528.099 4415184.823 59.950 429529.586 4415181.224 59.967 429530.738 4415178.436 59.972 429531.670 4415176.176 59.979 429532.701 4415173.680 59.984 429533.527 4415171.695 59.990 429534.154 4415170.183 59.996 429535.337 4415167.338 60.011 429536.203 4415165.271 60.024 429537.382 4415162.453 60.041 429538.675 4415159.375 60.057 429539.842 4415156.637 60.065 429541.281 4415153.297 60.056 429542.378 4415150.785 60.086 429543.579 4415148.059 60.095 429544.826 4415145.259 60.104 429545.842 4415143.020 60.113 429546.816 4415140.899 60.125 429547.779 4415138.863 60.136 429548.875 4415136.604 60.154 429549.849 4415134.595 60.166 429550.880 4415132.510 60.181 429551.819 4415130.576 60.183 429552.833 4415128.567 60.185 429553.827 4415126.600 60.187 429554.762 4415124.785 60.187 429555.754 4415122.851 60.183 429556.792 4415120.817 60.193 429557.996 4415118.495 60.199 429559.368 4415115.849 60.208 429560.396 4415113.949 60.218 429561.517 4415111.879 60.225 429562.906 4415109.359 60.236 429564.441 4415106.605 60.253 429565.524 4415104.699 60.267 429566.704 4415102.629 60.276 429568.277 4415099.908 60.283 429569.332 4415098.095 60.282 429571.126 4415095.058 60.290 429572.424 4415092.904 60.296 429574.406 4415089.667 60.301 429575.550 4415087.834 60.316 429576.807 4415085.801 60.322 429577.872 4415084.103 60.326 429579.196 4415082.036 60.328 429580.462 4415080.063 60.334 429581.707 4415078.140 60.345 429583.140 4415075.936 60.354 429584.786 4415073.469 60.362 429586.097 4415071.514 60.367 429587.454 4415069.507 60.367 429588.711 4415067.646 60.374 429589.977 4415065.807 60.378 429591.313 4415063.880 60.382 429592.816 4415061.765 60.394 429594.672 4415059.167 60.428 429600.651 4415051.067 60.467 429601.980 4415049.353 60.472 429603.307 4415047.625 60.475 429605.207 4415045.218 60.485 429606.673 4415043.445 60.495 429608.096 4415041.796 60.495 429609.449 4415040.212 60.496 429610.802 4415038.380 60.487 429612.112 4415036.379 60.480 429638.723 4415005.553 60.535 429640.681 4415003.598 60.559 429642.114 4415002.164 60.573 429643.762 4415000.515 60.580 429645.467 4414998.802 60.578 429647.266 4414997.008 60.555 429648.809 4414995.450 60.570 429650.578 4414993.673 60.558 429652.182 4414992.073 60.560 429654.154 4414990.145 60.560 429656.762 4414987.632 60.553 429658.311 4414986.159 60.553 429660.335 4414984.264 60.554 429661.915 4414982.784 60.557 429663.668 4414981.168 60.556 429665.258 4414979.715 60.558 429667.511 4414977.672 60.561 429669.723 4414975.687 60.565 429671.776 4414973.849 60.569 429674.047 4414971.853 60.576 429676.368 4414969.855 60.562 429678.317 4414968.209 60.516 429680.202 4414966.592 60.541 429682.123 4414964.976 60.531 429683.811 4414963.581 60.534 429685.550 4414962.153 60.545 429687.265 4414960.751 60.556 429692.099 4414956.854 60.594 429694.854 4414954.674 60.590 429696.792 4414953.156 60.584 429698.391 4414951.910 60.578 429700.182 4414950.525 60.571 429703.302 4414948.210 60.558 429705.071 4414946.860 60.549 429706.939 4414945.285 60.535 429708.572 4414943.602 60.527 429709.456 4414942.460 60.499 429711.146 4414939.602 60.466 429715.610 4414932.160 60.435 429717.743 4414928.849 60.392 429721.097 4414923.883 60.338 429724.535 4414919.101 60.330 429727.546 4414915.118 60.293 429730.226 4414911.919 60.266 429731.848 4414910.180 60.216 429733.278 4414908.734 60.230 429735.291 4414906.989 60.233 429737.397 4414905.365 60.210 429738.805 4414904.429 60.123 429742.094 4414902.817 60.108 429746.929 4414900.800 60.062 429750.341 4414899.564 60.043 429754.424 4414898.162 60.018 429759.043 4414896.702 59.988 429763.712 4414895.337 59.994 429767.826 4414893.841 59.990 429770.068 4414892.862 60.004 429772.002 4414892.003 60.027 429774.175 4414891.035 60.069 429776.133 4414890.159 60.095 429778.020 4414889.311 60.094 429790.734 4414883.632 60.010 429792.885 4414882.669 59.994 429801.756 4414878.720 59.901 429806.256 4414876.248 59.863,,,,,,,,,
19,429042.988 4415037.885 62.659 429047.109 4415040.072 62.666 429049.207 4415041.192 62.655 429051.172 4415042.145 62.631 429053.007 4415043.080 62.613 429053.961 4415043.550 62.564 429055.769 4415044.456 62.548 429057.844 4415045.477 62.574 429073.629 4415053.405 62.479 429079.299 4415056.232 62.458 429085.463 4415059.336 62.427 429091.802 4415062.530 62.349 429094.487 4415063.867 62.374 429097.168 4415065.214 62.375 429102.413 4415067.870 62.320 429104.312 4415068.881 62.302 429110.292 4415072.154 62.277 429112.541 4415073.438 62.279 429114.601 4415074.680 62.276 429115.582 4415075.289 62.269 429119.319 4415077.631 62.217 429121.284 4415078.905 62.203 429123.292 4415080.224 62.211 429125.641 4415081.828 62.184 429126.732 4415082.583 62.192 429128.736 4415084.005 62.185 429132.206 4415086.567 62.168 429134.529 4415088.305 62.138 429136.177 4415089.557 62.132 429137.906 4415090.950 62.116 429139.448 4415092.223 62.097 429139.675 4415092.408 62.096,,,,,,,,,
20,429015.612 4415012.998 62.674 429020.098 4415002.850 62.567 429021.090 4415000.263 62.630 429022.201 4414997.491 62.625 429023.354 4414994.630 62.607 429024.458 4414991.798 62.595 429025.488 4414989.071 62.581 429026.444 4414986.438 62.565 429027.185 4414984.359 62.558 429028.260 4414981.255 62.549 429028.986 4414979.087 62.535 429029.943 4414976.235 62.516 429030.626 4414974.025 62.499 429031.320 4414971.760 62.482 429032.111 4414969.165 62.429 429032.847 4414966.675 62.454 429033.420 4414964.701 62.451 429034.063 4414962.424 62.449 429034.728 4414959.932 62.433 429035.312 4414957.627 62.424 429035.838 4414955.579 62.412 429036.556 4414952.643 62.388 429037.041 4414950.589 62.373 429037.650 4414947.982 62.356 429038.207 4414945.436 62.342 429038.807 4414942.587 62.332 429039.252 4414940.327 62.326 429039.691 4414938.060 62.316 429040.109 4414935.745 62.291 429040.484 4414933.639 62.302 429040.914 4414931.132 62.296 429041.364 4414928.327 62.273 429042.229 4414922.518 62.248 429042.608 4414919.618 62.238 429042.896 4414917.251 62.224 429043.161 4414914.966 62.207 429043.455 4414912.179 62.182 429043.703 4414909.445 62.159 429043.896 4414907.362 62.144 429044.094 4414905.343 62.132 429044.323 4414902.780 62.115 429044.645 4414899.608 62.072 429044.858 4414897.071 62.097 429045.144 4414893.954 62.089 429045.351 4414891.730 62.069 429045.636 4414888.710 62.058 429045.830 4414886.591 62.058 429046.074 4414883.881 62.044 429046.289 4414881.569 62.041 429046.537 4414878.774 62.040 429046.743 4414876.530 62.026 429046.957 4414874.294 61.969 429047.210 4414871.424 62.017 429047.423 4414869.158 62.009 429047.630 4414867.110 62.000 429047.902 4414864.323 61.979 429048.128 4414862.312 61.960 429048.350 4414860.292 61.958 429048.610 4414858.079 61.938 429048.941 4414855.658 61.935 429049.341 4414852.878 61.927 429050.145 4414848.159 61.912 429050.518 4414846.014 61.901 429051.204 4414842.357 61.886 429051.684 4414839.947 61.875 429052.306 4414837.088 61.861 429052.779 4414834.999 61.852 429053.379 4414832.464 61.843 429053.862 4414830.467 61.835 429054.433 4414828.183 61.827 429055.030 4414826.103 61.778 429055.696 4414823.514 61.820 429056.464 4414820.825 61.816 429057.191 4414818.296 61.811 429057.903 4414815.968 61.803 429058.560 4414813.870 61.794 429059.433 4414811.220 61.784 429060.118 4414809.253 61.765 429061.075 4414806.576 61.747 429061.881 4414804.361 61.736 429062.659 4414802.284 61.722 429063.706 4414799.615 61.702 429064.502 4414797.669 61.690 429065.312 4414795.679 61.675 429066.139 4414793.697 61.667 429067.385 4414790.872 61.612 429068.376 4414788.564 61.632 429069.357 4414786.460 61.620 429070.316 4414784.407 61.614 429071.396 4414782.122 61.610 429072.432 4414780.029 61.602 429073.864 4414777.176 61.568 429074.947 4414775.075 61.571 429076.351 4414772.443 61.555 429077.719 4414769.927 61.537 429078.858 4414767.941 61.533 429079.975 4414766.034 61.526 429081.035 4414764.225 61.525 429082.763 4414761.288 61.510 429083.952 4414759.386 61.501 429085.373 4414757.126 61.490 429086.885 4414754.763 61.449 429088.173 4414752.807 61.464 429089.555 4414750.718 61.462 429090.809 4414748.872 61.452 429092.027 4414747.076 61.441 429093.713 4414744.607 61.434 429095.108 4414742.546 61.420 429096.471 4414740.523 61.402 429097.889 4414738.450 61.394 429099.008 4414736.767 61.380 429107.420 4414724.336 61.302 429108.642 4414722.515 61.291 429109.912 4414720.646 61.280 429111.266 4414718.646 61.263 429113.043 4414716.006 61.238 429114.992 4414713.105 61.217 429116.270 4414711.208 61.211 429117.629 4414709.190 61.177 429119.474 4414706.451 61.148 429121.164 4414703.953 61.136 429122.424 4414702.083 61.135 429131.334 4414688.917 61.042 429132.513 4414687.163 61.005 429133.723 4414685.367 61.012 429134.949 4414683.544 61.017 429136.195 4414681.691 61.020 429137.672 4414679.506 61.012 429138.794 4414677.838 61.013 429140.089 4414675.940 60.990 429141.227 4414674.237 60.965 429142.505 4414672.313 60.928 429143.777 4414670.430 60.908 429145.608 4414667.723 60.892 429147.002 4414665.654 60.884 429148.252 4414663.815 60.891 429149.458 4414662.049 60.863 429151.207 4414659.458 60.895 429153.081 4414656.682 60.896 429154.642 4414654.379 60.881 429156.618 4414651.468 60.874 429158.167 4414649.177 60.864 429159.602 4414647.055 60.857 429160.806 4414645.275 60.854 429161.985 4414643.539 60.850 429163.350 4414641.525 60.832 429165.017 4414639.061 60.818 429166.336 4414637.112 60.812 429167.724 4414635.061 60.809 429169.086 4414633.046 60.803 429170.408 4414631.094 60.795 429171.649 4414629.250 60.787 429175.304 4414623.843 60.745 429177.353 4414620.810 60.726 429178.785 4414618.689 60.717 429180.020 4414616.851 60.708 429181.788 4414614.230 60.693 429183.064 4414612.335 60.681 429184.217 4414610.629 60.673 429185.401 4414608.869 60.662 429186.990 4414606.561 60.608 429188.599 4414604.124 60.634 429190.130 4414601.859 60.621 429191.466 4414599.901 60.610 429192.982 4414597.659 60.592 429194.586 4414595.274 60.577 429195.834 4414593.433 60.558 429197.285 4414591.277 60.545 429198.766 4414589.091 60.526 429200.142 4414587.047 60.510 429201.447 4414585.117 60.499 429202.774 4414583.164 60.485 429204.576 4414580.498 60.468 429206.157 4414578.148 60.446 429208.596 4414574.549 60.418 429209.892 4414572.645 60.439 429211.107 4414570.857 60.449 429212.700 4414568.493 60.435 429214.404 4414565.968 60.411 429216.170 4414563.363 60.409 429217.416 4414561.513 60.405 429218.713 4414559.593 60.393 429219.942 4414557.789 60.384 429221.343 4414555.710 60.377 429222.545 4414553.927 60.371 429223.712 4414552.205 60.356 429224.985 4414550.315 60.344 429226.200 4414548.504 60.341 429227.649 4414546.351 60.329 429228.877 4414544.540 60.301 429230.162 4414542.637 60.317 429231.526 4414540.622 60.300 429233.243 4414538.080 60.284 429234.886 4414535.641 60.272 429237.423 4414531.891 60.246 429239.053 4414529.472 60.233 429240.505 4414527.332 60.218 429241.748 4414525.494 60.205 429243.207 4414523.329 60.194 429244.496 4414521.418 60.181 429245.847 4414519.419 60.174 429247.195 4414517.417 60.158 429248.534 4414515.426 60.124 429250.020 4414513.224 60.124 429251.560 4414510.990 60.117 429253.001 4414508.933 60.105 429254.493 4414506.796 60.091 429256.213 4414504.395 60.085 429257.421 4414502.740 60.078 429258.774 4414500.932 60.069 429260.399 4414498.819 60.053 429261.931 4414496.862 60.039 429263.527 4414494.843 60.012 429265.175 4414492.780 59.970 429266.907 4414490.663 59.957 429268.243 4414489.084 59.951 429269.801 4414487.313 59.952 429271.393 4414485.503 59.956 429272.888 4414483.829 59.954 429274.957 4414481.561 59.937 429276.735 4414479.647 59.939 429278.333 4414477.938 59.927 429279.502 4414476.726 59.920 429280.582 4414475.630 59.915 429283.251 4414472.948 59.903 429285.959 4414470.279 59.886 429288.028 4414468.314 59.877 429291.031 4414465.527 59.850 429293.446 4414463.356 59.823 429296.476 4414460.700 59.819 429298.734 4414458.770 59.817 429301.871 4414456.131 59.794 429303.683 4414454.659 59.784 429309.106 4414450.424 59.754 429311.249 4414448.806 59.745 429313.069 4414447.466 59.738 429318.086 4414443.901 59.690 429319.752 4414442.737 59.671 429323.432 4414440.281 59.632 429325.224 4414439.134 59.624 429328.114 4414437.295 59.617 429331.156 4414435.381 59.608 429333.298 4414434.065 59.594 429335.929 4414432.538 59.582 429337.914 4414431.397 59.579 429340.184 4414430.104 59.566 429341.945 4414429.125 59.553 429343.698 4414428.152 59.534 429346.244 4414426.805 59.504 429348.786 4414425.495 59.503 429351.754 4414424.028 59.517 429354.522 4414422.679 59.513 429356.560 4414421.710 59.505 429358.818 4414420.678 59.491 429361.051 4414419.677 59.479 429363.253 4414418.706 59.465 429365.691 4414417.659 59.445 429368.625 4414416.429 59.430 429370.566 4414415.640 59.420 429372.674 4414414.800 59.394 429374.945 4414413.956 59.374 429377.622 4414412.939 59.366 429379.967 4414412.090 59.344 429383.286 4414410.961 59.338 429385.335 4414410.277 59.346 429388.191 4414409.360 59.348 429390.598 4414408.598 59.337 429393.037 4414407.829 59.325 429395.374 4414407.112 59.307 429397.456 4414406.524 59.296 429399.588 4414405.940 59.295 429401.743 4414405.341 59.286 429406.577 4414404.231 59.262,,,,,,,,,
21,429435.629 4414408.449 59.341 429462.555 4414403.425 59.208 429464.693 4414402.893 59.192 429466.669 4414402.493 59.183 429468.686 4414402.081 59.164 429471.208 4414401.572 59.147 429473.351 4414401.138 59.136 429475.379 4414400.727 59.125 429477.564 4414400.285 59.115 429479.799 4414399.833 59.108 429481.999 4414399.388 59.095 429484.440 4414398.898 59.088 429486.941 4414398.387 59.079 429490.319 4414397.705 59.068 429492.298 4414397.308 59.056 429494.721 4414396.821 59.058 429496.806 4414396.403 59.056 429498.881 4414395.988 59.047 429501.400 4414395.460 59.032 429504.404 4414394.862 59.015 429507.567 4414394.225 58.998 429510.316 4414393.670 58.987 429512.743 4414393.162 58.979 429514.758 4414392.776 58.969 429516.841 4414392.349 58.954 429519.408 4414391.837 58.939 429521.597 4414391.398 58.926 429523.913 4414390.931 58.911 429526.774 4414390.361 58.897 429529.170 4414389.877 58.884 429531.414 4414389.424 58.864 429533.580 4414388.978 58.866 429536.474 4414388.395 58.864 429538.608 4414387.964 58.856 429540.675 4414387.547 58.846 429542.845 4414387.113 58.832 429544.896 4414386.700 58.822 429547.339 4414386.209 58.811 429549.496 4414385.772 58.804 429551.618 4414385.340 58.796 429553.893 4414384.883 58.785 429556.033 4414384.454 58.775 429558.241 4414384.006 58.765 429560.405 4414383.573 58.756 429562.771 4414383.089 58.741 429565.874 4414382.466 58.726 429567.974 4414382.038 58.713 429569.989 4414381.638 58.694 429572.178 4414381.194 58.689 429575.103 4414380.600 58.681 429577.229 4414380.173 58.675 429579.320 4414379.751 58.666 429581.302 4414379.344 58.658 429583.653 4414378.870 58.646 429586.217 4414378.358 58.630 429589.098 4414377.775 58.610 429591.799 4414377.220 58.595 429594.531 4414376.666 58.583 429596.723 4414376.226 58.572 429599.531 4414375.661 58.559 429601.665 4414375.231 58.546 429603.671 4414374.819 58.534 429605.851 4414374.381 58.518 429608.422 4414373.867 58.516 429611.244 4414373.301 58.478 429613.401 4414372.861 58.468 429616.159 4414372.299 58.471 429618.123 4414371.904 58.466 429620.557 4414371.415 58.453 429622.573 4414371.005 58.442 429624.689 4414370.583 58.433 429627.486 4414370.019 58.421 429630.451 4414369.408 58.404 429632.022 4414369.104 58.389 429639.729 4414367.841 58.333 429645.045 4414368.356 58.327 429652.164 4414367.761 58.274 429702.881 4414357.239 58.350,,,,,,,,,
22,429823.055 4414854.900 59.781 429822.966 4414854.612 59.786 429821.505 4414847.744 59.854 429821.253 4414847.511 59.876 429820.845 4414845.553 59.880 429820.231 4414842.604 59.915 429819.261 4414837.721 59.969 429818.352 4414833.207 60.030 429817.818 4414830.404 60.051 429817.767 4414830.223 60.058 429815.871 4414820.726 60.072 429815.078 4414816.755 60.087 429813.822 4414810.675 60.134 429812.284 4414802.989 60.128 429810.651 4414794.916 60.164 429810.381 4414793.541 60.177 429809.375 4414788.683 60.147 429808.782 4414785.742 60.124 429806.797 4414775.942 59.972 429805.422 4414769.108 59.848 429803.442 4414759.309 59.640 429802.629 4414755.365 59.575 429801.892 4414751.672 59.544 429800.892 4414746.764 59.525 429791.372 4414699.158 59.714 429791.354 4414698.899 59.712 429790.152 4414692.963 59.727 429789.101 4414688.074 59.738 429788.180 4414683.593 59.745 429787.134 4414678.271 59.762 429786.027 4414672.374 59.775 429784.039 4414662.575 59.798 429782.272 4414653.750 59.803 429781.261 4414648.853 59.803 429780.424 4414644.941 59.799 429778.464 4414635.134 59.788 429777.450 4414630.239 59.778 429775.524 4414620.425 59.764 429774.515 4414615.529 59.751 429772.547 4414605.726 59.742 429771.974 4414602.778 59.736 429770.954 4414597.885 59.728 429769.198 4414589.058 59.704 429768.339 4414584.930 59.692 429767.346 4414580.018 59.668 429765.764 4414572.408 59.650 429764.591 4414566.524 59.621 429763.595 4414561.624 59.614 429762.334 4414555.717 59.599 429761.987 4414553.994 59.593 429761.578 4414552.019 59.565 429761.547 4414551.824 59.557 429761.532 4414551.827 59.557,,,,,,,,,
23,429130.958 4415099.046 62.272 429125.922 4415095.299 62.295 429123.298 4415093.486 62.312 429119.219 4415090.575 62.343 429117.456 4415089.368 62.352 429115.049 4415087.753 62.363 429113.283 4415086.614 62.374 429110.791 4415085.041 62.392 429106.454 4415082.450 62.418 429102.140 4415080.014 62.430 429097.771 4415077.716 62.456 429093.269 4415075.453 62.487 429088.756 4415073.190 62.521 429084.329 4415070.979 62.569 429079.871 4415068.748 62.604 429075.375 4415066.491 62.643 429070.964 4415064.242 62.676 429066.587 4415062.075 62.691 429062.107 4415059.839 62.720 429057.710 4415057.563 62.748 429057.388 4415057.417 62.758 429052.891 4415055.233 62.777 429048.442 4415053.016 62.816 429044.075 4415050.630 62.815 429037.735 4415047.420 62.778,,,,,,,,,
24,429702.889 4414357.299 58.363 429632.744 4414372.015 58.392 429630.749 4414372.462 58.401 429628.409 4414372.930 58.408 429626.301 4414373.353 58.418 429624.246 4414373.771 58.428 429621.768 4414374.275 58.443 429619.678 4414374.699 58.449 429617.634 4414375.114 58.456 429615.397 4414375.564 58.461 429613.255 4414375.996 58.466 429611.077 4414376.437 58.468 429608.994 4414376.857 58.493 429606.988 4414377.260 58.503 429604.822 4414377.698 58.516 429602.672 4414378.128 58.537 429600.413 4414378.579 58.550 429597.319 4414379.208 58.574 429595.013 4414379.675 58.590 429592.744 4414380.127 58.598 429590.051 4414380.668 58.600 429586.957 4414381.301 58.614 429584.689 4414381.765 58.626 429582.275 4414382.245 58.643 429580.211 4414382.665 58.652 429578.010 4414383.104 58.657 429575.673 4414383.575 58.664 429573.670 4414383.984 58.665 429571.522 4414384.411 58.681 429569.537 4414384.812 58.706 429567.526 4414385.214 58.716 429565.408 4414385.642 58.724 429563.329 4414386.056 58.735 429560.337 4414386.656 58.749 429558.370 4414387.052 58.758 429556.284 4414387.478 58.769 429554.313 4414387.873 58.776 429552.208 4414388.299 58.790 429549.373 4414388.870 58.804 429547.167 4414389.317 58.809 429545.007 4414389.756 58.821 429542.107 4414390.342 58.837 429540.047 4414390.756 58.842 429536.897 4414391.393 58.846 429534.734 4414391.834 58.855 429531.786 4414392.421 58.878 429529.794 4414392.823 58.890 429527.130 4414393.351 58.897 429525.096 4414393.759 58.903 429522.964 4414394.186 58.914 429520.979 4414394.584 58.920 429518.894 4414395.006 58.930 429515.974 4414395.602 58.948 429513.063 4414396.192 58.966 429510.642 4414396.685 58.981 429508.552 4414397.107 58.992 429506.142 4414397.594 59.003 429503.959 4414398.029 59.015 429501.789 4414398.468 59.025 429499.718 4414398.883 59.030 429497.667 4414399.303 59.032 429495.528 4414399.735 59.051 429493.475 4414400.154 59.060 429490.156 4414400.826 59.077 429488.097 4414401.244 59.069 429485.846 4414401.700 59.095 429483.848 4414402.104 59.105 429481.353 4414402.605 59.111 429479.323 4414403.016 59.122 429477.221 4414403.440 59.137 429474.670 4414403.952 59.153 429472.587 4414404.379 59.166 429470.541 4414404.796 59.180 429468.345 4414405.244 59.201 429466.207 4414405.680 59.210 429463.967 4414406.142 59.201 429435.671 4414411.760 59.285,,,,,,,,,
25,429730.300 4414377.249 58.587 429739.178 4414420.957 58.813 429740.368 4414426.845 58.844 429741.395 4414435.788 58.959 429741.271 4414441.904 58.946 429742.150 4414450.557 58.989 429742.869 4414456.575 59.044 429748.050 4414483.129 59.197 429753.741 4414509.716 59.336,,,,,,,,,
26,429752.806 4414510.197 59.341 429742.953 4414459.294 59.134 429742.496 4414456.648 59.044 429741.385 4414447.822 58.976 429740.910 4414438.856 58.934 429740.805 4414435.826 58.974 429739.657 4414426.910 58.871 429729.906 4414379.011 58.604 429729.581 4414377.390 58.664,,,,,,,,,
27,429761.948 4414551.761 59.574 429766.502 4414573.910 59.672 429777.994 4414631.078 59.762 429785.842 4414670.093 59.770 429791.499 4414697.756 59.722 429803.175 4414755.549 59.642 429806.675 4414772.822 60.016 429807.514 4414776.866 60.117 429809.142 4414784.828 60.126 429810.202 4414790.025 60.224 429812.105 4414799.492 60.138 429813.105 4414804.390 60.175 429818.767 4414832.397 60.029 429821.018 4414843.403 59.970 429823.381 4414854.320 59.836,,,,,,,,,
28,430027.282 4414758.158 58.188 430025.592 4414757.658 58.188 430023.635 4414757.209 58.188 430021.957 4414757.170 58.188 430020.541 4414757.465 58.188 430018.279 4414758.468 58.188 430016.712 4414759.439 58.208 430014.219 4414761.115 58.223 430012.315 4414762.400 58.237 430009.699 4414764.210 58.252 430007.909 4414765.407 58.268 430005.957 4414766.708 58.271 430003.361 4414768.494 58.283 430001.577 4414769.716 58.295 429999.706 4414770.992 58.304 429997.981 4414772.166 58.317 429995.404 4414773.914 58.331 429993.394 4414775.265 58.340 429991.528 4414776.555 58.361 429989.793 4414777.729 58.372 429988.075 4414778.891 58.380 429986.366 4414780.048 58.394 429984.572 4414781.282 58.405 429982.819 4414782.452 58.422 429980.984 4414783.706 58.431 429979.311 4414784.850 58.450 429977.650 4414785.985 58.475 429975.864 4414787.211 58.486 429974.173 4414788.360 58.493 429972.454 4414789.541 58.509 429970.460 4414790.880 58.521 429968.566 4414792.168 58.534 429966.187 4414793.802 58.549 429964.459 4414794.969 58.566 429961.867 4414796.746 58.579 429959.873 4414798.110 58.585 429957.860 4414799.492 58.604 429956.068 4414800.714 58.618 429954.074 4414802.068 58.639 429952.243 4414803.310 58.656 429949.714 4414805.023 58.682 429947.263 4414806.687 58.711 429945.247 4414808.050 58.738 429943.412 4414809.292 58.749 429941.664 4414810.482 58.767 429939.034 4414812.282 58.770 429937.291 4414813.478 58.815 429935.431 4414814.720 58.829 429933.722 4414815.907 58.849 429931.980 4414817.110 58.864 429930.170 4414818.339 58.884 429928.422 4414819.535 58.904 429926.598 4414820.784 58.932 429924.873 4414821.970 58.951 429923.084 4414823.175 58.962 429920.308 4414825.077 58.991 429918.438 4414826.345 59.007 429916.740 4414827.500 59.026 429915.013 4414828.682 59.044 429913.343 4414829.820 59.062 429911.598 4414831.015 59.078 429909.753 4414832.274 59.088 429908.044 4414833.430 59.097 429906.310 4414834.615 59.096 429904.284 4414835.970 59.114 429902.514 4414837.328 59.136 429900.775 4414838.714 59.165 429899.150 4414840.004 59.172 429897.374 4414841.420 59.199 429895.775 4414842.693 59.214 429894.082 4414844.039 59.224 429892.430 4414845.341 59.233 429890.682 4414846.727 59.246 429889.039 4414848.059 59.267 429887.455 4414849.284 59.277 429885.560 4414850.560 59.295 429883.427 4414852.000 59.313 429881.607 4414853.229 59.331 429879.889 4414854.400 59.342 429877.954 4414855.702 59.350 429876.096 4414856.950 59.364 429874.341 4414858.145 59.363 429872.463 4414859.436 59.383 429870.084 4414861.079 59.409 429868.243 4414862.312 59.427 429865.822 4414863.976 59.463 429863.745 4414865.392 59.478 429861.948 4414866.629 59.488 429859.772 4414868.084 59.499 429858.117 4414869.229 59.516 429855.570 4414870.976 59.553 429850.548 4414874.536 59.553 429847.688 4414877.401 59.706 429845.493 4414880.582 59.691 429843.929 4414883.297 59.824,,,,,,,,,
29,429731.390 4414323.041 58.461 429733.669 4414325.717 58.504 429738.234 4414328.805 58.639 429745.359 4414330.991 58.353 429750.008 4414331.175 58.328 429752.071 4414330.767 58.356 429754.498 4414330.267 58.369 429756.654 4414329.833 58.355 429758.874 4414329.386 58.341 429761.519 4414328.845 58.328 429763.555 4414328.438 58.320 429765.987 4414327.954 58.313 429768.048 4414327.523 58.313 429771.311 4414326.856 58.305 429773.659 4414326.372 58.283 429775.906 4414325.920 58.247 429778.243 4414325.429 58.259 429781.098 4414324.864 58.250 429783.068 4414324.454 58.241 429785.530 4414323.955 58.232 429788.129 4414323.430 58.212 429790.780 4414322.890 58.204 429793.197 4414322.408 58.193 429795.390 4414321.943 58.187 429798.371 4414321.352 58.183 429800.502 4414320.908 58.179 429803.059 4414320.392 58.173 429805.694 4414319.813 58.178 429807.913 4414319.455 58.166 429812.463 4414319.032 58.293 429822.609 4414318.411 58.125 429832.327 4414318.009 58.025 429834.375 4414317.596 58.030 429836.501 4414317.168 58.033 429838.565 4414316.774 58.024 429840.626 4414316.336 58.041 429843.672 4414315.730 58.053 429845.758 4414315.323 58.060 429847.925 4414314.883 58.062 429850.069 4414314.452 58.054 429852.195 4414314.021 58.057 429864.624 4414311.444 58.019 429867.739 4414310.846 58.005 429870.434 4414310.221 58.052 429872.165 4414309.295 57.974 429874.641 4414307.605 58.133 429876.884 4414306.474 58.061 429877.773 4414306.027 57.967 429879.730 4414305.349 57.962 429881.976 4414304.860 57.951 429885.168 4414304.242 57.927 429887.470 4414303.763 57.918 429889.671 4414303.304 57.902 429891.967 4414302.854 57.917 429894.501 4414302.358 57.912 429896.521 4414301.958 57.897 429899.632 4414301.324 57.887 429901.660 4414300.895 57.882 429903.759 4414300.488 57.876 429906.020 4414300.015 57.875 429907.991 4414299.760 58.026 429909.441 4414300.125 57.919 429910.645 4414300.360 57.912 429913.536 4414300.374 57.929 429916.087 4414300.239 57.845 429920.453 4414299.950 57.816 429923.791 4414299.550 57.792 429925.988 4414299.087 57.781 429928.365 4414298.632 57.761 429931.849 4414297.918 57.737 429934.013 4414297.482 57.721 429936.063 4414297.065 57.704 429938.195 4414296.641 57.694 429940.263 4414296.223 57.680 429942.275 4414295.812 57.666 429945.191 4414295.225 57.647 429947.308 4414294.802 57.641 429949.348 4414294.395 57.651 429951.390 4414293.978 57.660 429954.361 4414293.385 57.628 429956.335 4414292.982 57.644 429960.202 4414292.229 57.635 429962.228 4414291.792 57.642 429964.326 4414291.367 57.634 429966.379 4414290.947 57.624 429994.196 4414285.322 57.563 429997.297 4414284.673 57.576 429998.877 4414284.251 57.529 429999.637 4414282.694 57.579 430000.102 4414281.458 57.599 430009.180 4414279.120 57.595 430010.277 4414279.946 57.578 430011.383 4414280.428 57.505 430012.756 4414280.669 57.462 430015.798 4414280.467 57.428 430018.482 4414279.771 57.437 430021.442 4414279.004 57.409 430023.462 4414278.454 57.393 430025.506 4414277.853 57.374 430028.225 4414277.034 57.394 430030.461 4414276.339 57.411 430032.577 4414275.683 57.360 430034.902 4414274.905 57.348 430036.960 4414274.211 57.349 430043.071 4414272.044 57.320 430048.238 4414270.147 57.312 430052.107 4414268.443 57.315 430060.564 4414264.784 57.328 430062.823 4414263.569 57.301 430064.020 4414262.203 57.352 430065.055 4414260.061 57.329 430065.858 4414257.136 57.352 430066.162 4414254.765 57.407 430065.958 4414251.934 57.394,,,,,,,,,
30,430127.816 4414264.844 57.629 430128.034 4414265.751 57.505 430128.660 4414267.651 57.516 430129.456 4414269.666 57.537 430130.237 4414271.180 57.515 430131.299 4414272.632 57.505 430135.439 4414276.540 57.546 430137.013 4414277.952 57.562 430138.631 4414279.380 57.578 430140.267 4414280.870 57.596 430141.879 4414282.357 57.605 430143.454 4414283.825 57.618 430144.958 4414285.245 57.638 430146.400 4414286.639 57.654 430148.061 4414288.272 57.667 430149.508 4414289.720 57.676 430150.950 4414291.190 57.696 430152.532 4414292.789 57.708 430153.936 4414294.297 57.728 430155.345 4414295.785 57.746 430156.763 4414297.319 57.760 430158.200 4414298.898 57.775 430159.560 4414300.427 57.791 430160.914 4414301.981 57.801 430162.339 4414303.608 57.813 430163.700 4414305.209 57.828 430165.053 4414306.842 57.841 430166.362 4414308.434 57.854 430167.693 4414310.075 57.862 430169.027 4414311.751 57.877 430170.302 4414313.358 57.897 430171.602 4414315.036 57.906 430172.823 4414316.646 57.920 430174.663 4414319.126 57.948 430176.431 4414321.550 57.971 430177.614 4414323.229 57.984 430178.799 4414324.917 58.001 430179.986 4414326.626 58.016 430181.769 4414329.256 58.054 430186.256 4414336.234 58.092 430188.700 4414340.346 58.136 430190.876 4414344.026 58.166 430192.958 4414347.744 58.198 430197.508 4414356.455 58.257 430202.334 4414366.515 58.326 430204.855 4414372.382 58.393 430205.702 4414374.450 58.405 430208.134 4414380.582 58.452 430209.757 4414384.866 58.486 430211.638 4414390.376 58.514 430213.604 4414396.467 58.549 430215.082 4414401.491 58.555 430217.897 4414411.588 58.612 430219.873 4414419.691 58.626 430221.073 4414425.059 58.618 430223.424 4414435.800 58.615 430228.303 4414459.787 58.679 430234.935 4414492.570 58.774 430243.484 4414535.060 58.513 430250.262 4414569.595 58.087 430251.497 4414573.830 58.095 430253.034 4414576.499 58.105 430255.264 4414578.975 58.150 430258.165 4414581.083 58.178 430258.906 4414581.434 58.168,,,,,,,,,
31,430107.629 4414281.154 57.368 430106.522 4414280.357 57.412 430103.962 4414278.895 57.368 430100.102 4414277.451 57.503 430094.928 4414276.846 57.474 430090.529 4414277.381 57.566 430086.140 4414278.941 57.731 430079.002 4414282.710 57.778 430065.649 4414288.906 57.848 430061.798 4414290.538 57.854 430058.204 4414292.757 57.873 430048.900 4414298.736 57.836 430039.282 4414301.956 57.987 430030.214 4414304.624 57.972 430028.219 4414305.067 57.925 430020.895 4414306.605 57.884 430018.767 4414307.041 57.890 430016.674 4414307.416 57.875 430014.666 4414307.644 57.864 430012.652 4414307.736 57.864 430008.158 4414307.620 57.695 430005.612 4414307.651 57.657 430004.224 4414307.815 57.717 430002.016 4414308.229 57.698 430000.033 4414308.620 57.655 429998.067 4414309.014 57.672 429994.126 4414309.842 57.675 429991.812 4414310.291 57.682 429989.263 4414310.812 57.688 429987.225 4414311.219 57.697 429985.201 4414311.629 57.708 429983.196 4414312.036 57.704 429981.122 4414312.466 57.717 429979.094 4414312.875 57.729 429976.524 4414313.427 57.759 429973.890 4414313.967 57.766 429971.794 4414314.622 57.791 429969.567 4414315.494 57.810 429966.885 4414317.244 57.789 429964.752 4414319.018 57.863 429963.079 4414321.031 57.779 429962.089 4414322.328 57.809 429960.768 4414324.579 57.835 429941.824 4414329.265 58.003 429939.022 4414326.806 57.920 429936.644 4414325.573 57.894 429932.106 4414324.031 57.906 429929.550 4414323.522 58.029 429926.934 4414323.628 57.923 429924.831 4414323.869 57.932 429922.578 4414324.296 57.931 429920.229 4414324.759 57.932 429917.886 4414325.240 57.951 429915.038 4414325.809 57.950 429912.788 4414326.277 57.973 429910.752 4414326.687 57.969 429907.713 4414327.302 57.987 429905.727 4414327.687 57.980 429903.034 4414328.224 57.981 429900.840 4414328.670 57.988 429898.615 4414329.129 57.996 429896.393 4414329.599 58.013 429894.318 4414330.006 58.010 429891.694 4414330.557 58.048 429889.651 4414330.953 58.037 429887.472 4414331.399 58.046 429885.298 4414331.853 58.071 429883.195 4414332.275 58.072 429881.204 4414332.682 58.079 429878.461 4414333.235 58.082 429875.558 4414333.820 58.089 429872.923 4414334.352 58.098 429870.548 4414334.841 58.107 429868.528 4414335.224 58.107 429866.487 4414335.646 58.119 429864.436 4414336.063 58.124 429862.250 4414336.500 58.134 429860.081 4414336.954 58.140 429858.040 4414337.368 58.138 429855.703 4414337.823 58.146 429853.568 4414338.255 58.160 429851.434 4414338.694 58.176 429849.417 4414339.104 58.177 429847.233 4414339.548 58.185 429845.130 4414339.971 58.192 429843.130 4414340.376 58.212 429834.946 4414342.200 58.232 429833.028 4414342.902 58.240 429830.881 4414343.683 58.244 429828.835 4414344.386 58.235 429826.689 4414345.157 58.229 429824.629 4414345.891 58.240 429822.411 4414346.671 58.234 429820.165 4414347.472 58.232 429818.051 4414348.214 58.241 429816.001 4414348.963 58.237 429813.880 4414349.736 58.250 429811.608 4414350.329 58.250 429809.450 4414350.793 58.260 429806.520 4414351.359 58.269 429803.830 4414351.929 58.284 429801.636 4414352.370 58.288 429799.613 4414352.774 58.293 429797.548 4414353.204 58.304 429795.365 4414353.631 58.307 429793.059 4414354.113 58.308 429790.598 4414354.610 58.312 429788.561 4414355.039 58.334 429786.465 4414355.453 58.337 429784.485 4414355.858 58.346 429782.428 4414356.271 58.357 429780.234 4414356.731 58.354 429778.208 4414357.144 58.375 429776.194 4414357.554 58.383 429773.337 4414358.128 58.393 429771.346 4414358.535 58.397 429769.326 4414358.936 58.406 429767.352 4414359.345 58.416 429765.260 4414359.769 58.423 429763.121 4414360.196 58.433 429760.192 4414360.817 58.458 429758.135 4414361.221 58.459 429753.403 4414362.363 58.556 429753.098 4414362.533 58.539,,,,,,,,,
32,429806.256 4414876.148 59.643 429807.690 4414873.306 59.851 429809.675 4414870.235 59.906 429810.674 4414868.227 59.725 429812.013 4414864.369 59.728 429812.569 4414860.994 59.686 429812.202 4414856.535 59.617 429811.779 4414853.106 59.845 429811.075 4414849.475 59.819 429810.633 4414847.106 59.877 429810.253 4414845.046 59.931 429809.814 4414842.868 59.951 429809.403 4414840.774 59.963 429808.728 4414837.400 59.955 429808.314 4414835.345 59.958 429807.863 4414833.206 59.961 429807.418 4414830.961 59.965 429807.006 4414828.934 59.979 429806.583 4414826.850 59.975 429806.190 4414824.869 59.975 429805.791 4414822.890 59.977 429805.301 4414820.515 59.976 429804.856 4414818.293 59.979 429804.430 4414816.141 59.984 429804.016 4414814.115 59.996 429803.503 4414811.625 59.994 429803.073 4414809.531 60.002 429802.674 4414807.485 60.015 429802.203 4414805.104 60.025 429801.791 4414803.112 60.029 429801.275 4414800.583 60.023 429800.853 4414798.493 60.025 429800.447 4414796.429 60.046 429799.781 4414793.093 60.041 429799.330 4414790.841 60.000 429798.926 4414788.869 59.970 429798.470 4414786.687 59.929 429797.970 4414784.221 59.899 429797.461 4414781.788 59.874 429797.028 4414779.664 59.843 429796.621 4414777.616 59.815 429796.185 4414775.532 59.790 429795.742 4414773.364 59.751 429795.342 4414771.332 59.706 429794.900 4414769.197 59.680 429794.503 4414767.211 59.644 429794.018 4414764.892 59.606 429793.545 4414762.550 59.544 429793.080 4414760.303 59.481 429792.626 4414758.020 59.429 429792.228 4414756.023 59.398 429791.137 4414751.597 59.398 429789.955 4414749.443 59.398 429788.528 4414747.795 59.398 429787.531 4414746.943 59.398 429786.240 4414746.261 59.398 429784.681 4414745.821 59.398 429782.259 4414745.806 59.398 429780.832 4414745.913 59.398 429777.987 4414731.514 59.397 429779.893 4414730.215 59.397 429782.477 4414728.241 59.397 429783.523 4414726.988 59.397 429785.051 4414724.651 59.733 429785.021 4414722.748 59.509 429784.918 4414719.896 59.494 429784.505 4414717.913 59.527 429783.901 4414714.846 59.565 429783.451 4414712.663 59.576 429783.035 4414710.589 59.583 429782.630 4414708.618 59.592 429782.210 4414706.466 59.584 429781.601 4414703.417 59.597 429781.145 4414701.202 59.606 429780.726 4414699.117 59.609 429780.269 4414696.899 59.616 429779.558 4414693.305 59.617 429778.988 4414690.563 59.636 429778.370 4414687.446 59.640 429777.859 4414684.967 59.639 429777.373 4414682.595 59.633 429776.750 4414679.460 59.659 429776.237 4414676.848 59.653 429775.770 4414674.596 59.658 429775.268 4414672.125 59.657 429774.804 4414669.825 59.668 429774.353 4414667.552 59.676 429773.922 4414665.519 59.671 429773.508 4414663.443 59.670 429772.956 4414660.677 59.670 429772.543 4414658.650 59.675 429772.103 4414656.465 59.670 429771.680 4414654.343 59.672 429771.250 4414652.272 59.673 429770.821 4414650.120 59.675 429770.385 4414647.964 59.674 429769.952 4414645.829 59.674 429769.478 4414643.413 59.676 429768.876 4414640.426 59.668 429768.468 4414638.430 59.663 429768.014 4414636.069 59.654 429767.533 4414633.813 59.656 429767.152 4414631.848 59.646 429766.747 4414629.824 59.634 429766.334 4414627.795 59.642 429765.837 4414625.337 59.644 429765.376 4414623.043 59.643 429764.933 4414620.835 59.639 429764.492 4414618.659 59.640 429764.075 4414616.567 59.633 429763.644 4414614.468 59.631 429763.215 4414612.394 59.627 429762.798 4414610.298 59.618 429762.415 4414608.304 59.613 429761.990 4414606.275 59.606 429761.541 4414604.059 59.598 429761.115 4414601.962 59.598 429760.649 4414599.635 59.599 429760.089 4414596.883 59.598 429759.653 4414594.702 59.591 429759.165 4414592.298 59.589 429758.548 4414589.289 59.564 429758.110 4414587.088 59.554 429757.695 4414585.014 59.543 429757.258 4414582.840 59.543 429756.850 4414580.769 59.533 429756.422 4414578.692 59.528 429755.988 4414576.556 59.523 429755.590 4414574.549 59.514 429755.178 4414572.487 59.510 429754.757 4414570.425 59.491 429754.334 4414568.310 59.492 429753.859 4414565.914 59.487 429753.440 4414563.863 59.480 429753.024 4414561.823 59.467 429752.159 4414557.944 59.472 429750.758 4414555.340 59.472 429749.300 4414553.195 59.472 429747.581 4414551.533 59.472 429746.495 4414550.767 59.472 429742.143 4414530.131 59.270 429742.715 4414528.955 59.270 429743.368 4414526.658 59.270 429743.846 4414524.425 59.270 429744.072 4414523.065 59.270 429744.368 4414521.299 59.270 429744.316 4414519.686 59.270 429744.039 4414517.781 59.270 429743.619 4414515.635 59.282 429743.194 4414513.440 59.257 429742.735 4414511.271 59.241 429742.177 4414508.440 59.228 429741.720 4414506.162 59.215 429741.207 4414503.626 59.200 429740.604 4414500.674 59.187 429740.182 4414498.625 59.170 429739.743 4414496.411 59.157 429739.313 4414494.309 59.145 429738.838 4414491.980 59.131 429738.398 4414489.852 59.129 429737.994 4414487.803 59.106 429737.565 4414485.687 59.093 429737.119 4414483.514 59.081 429736.622 4414481.115 59.075 429736.207 4414479.004 59.063 429735.777 4414476.918 59.057 429735.350 4414474.765 59.047 429734.923 4414472.662 59.036 429734.485 4414470.482 59.020 429734.042 4414468.286 59.006 429733.622 4414466.202 58.991 429733.213 4414464.175 58.977 429732.792 4414462.045 58.968 429732.358 4414459.960 58.956 429731.937 4414457.870 58.953 429731.502 4414455.744 58.939 429731.093 4414453.696 58.928 429730.673 4414451.635 58.913 429730.242 4414449.501 58.895 429729.798 4414447.318 58.881 429729.368 4414445.219 58.874 429728.726 4414441.982 58.852 429725.244 4414424.774 58.766 429724.812 4414422.685 58.763 429724.350 4414420.406 58.762 429723.922 4414418.337 58.755 429723.484 4414416.185 58.744 429723.047 4414413.974 58.735 429722.638 4414411.941 58.721 429722.040 4414409.013 58.709 429721.628 4414406.962 58.695 429721.194 4414404.799 58.689 429720.799 4414402.820 58.676 429720.216 4414399.933 58.660 429719.802 4414397.862 58.643 429719.370 4414395.749 58.625 429718.972 4414393.789 58.625 429718.555 4414391.804 58.622 429718.140 4414389.749 58.611 429717.709 4414387.742 58.597 429717.110 4414385.831 58.576 429715.892 4414382.406 58.665 429713.899 4414379.733 58.580 429711.986 4414378.073 58.541 429708.816 4414375.925 58.369 429704.814 4414374.436 58.419 429701.355 4414374.039 58.294,,,,,,,,,
33,429969.343 4414301.089 57.844 429971.507 4414300.620 57.820 429973.717 4414300.167 57.801 429975.969 4414299.706 57.790 429977.986 4414299.302 57.784 429981.024 4414298.688 57.781 429983.206 4414298.246 57.770 429985.481 4414297.784 57.764 429988.413 4414297.184 57.756 429990.492 4414296.767 57.745 429992.825 4414296.274 57.732 429994.952 4414295.864 57.733 429997.048 4414295.418 57.730 429999.090 4414295.005 57.728 430001.187 4414294.567 57.717 430003.300 4414294.111 57.715 430005.687 4414293.591 57.712 430008.546 4414292.962 57.702 430010.938 4414292.399 57.694 430013.154 4414291.899 57.688 430015.294 4414291.389 57.678 430017.587 4414290.831 57.665 430019.547 4414290.358 57.656 430021.794 4414289.789 57.650 430023.896 4414289.242 57.640 430026.386 4414288.558 57.628 430028.390 4414287.981 57.624 430030.939 4414287.227 57.614 430033.088 4414286.580 57.606 430036.143 4414285.625 57.595 430038.267 4414284.895 57.582 430040.291 4414284.197 57.575 430042.291 4414283.497 57.570 430044.528 4414282.691 57.558 430046.829 4414281.884 57.545 430048.904 4414281.118 57.540 430050.845 4414280.373 57.532 430053.677 4414279.254 57.533 430055.612 4414278.458 57.521 430057.569 4414277.620 57.504 430060.409 4414276.442 57.505 430062.427 4414275.567 57.505 430064.417 4414274.699 57.510 430066.947 4414273.607 57.502,,,,,,,,,
34,430068.445 4414276.097 57.499 430068.118 4414276.342 57.505 430066.221 4414277.225 57.517 430064.220 4414278.093 57.525 430062.276 4414278.926 57.536 430060.106 4414279.855 57.542 430058.031 4414280.752 57.544 430056.032 4414281.576 57.553 430053.913 4414282.435 57.568 430051.911 4414283.232 57.578 430049.692 4414284.070 57.589 430047.554 4414284.838 57.600 430045.488 4414285.583 57.612 430043.303 4414286.365 57.620 430041.204 4414287.083 57.631 430038.993 4414287.847 57.638 430036.654 4414288.632 57.648 430034.258 4414289.382 57.650 430032.073 4414290.051 57.656 430029.126 4414290.908 57.658 430026.927 4414291.524 57.676 430024.278 4414292.259 57.671 430022.213 4414292.787 57.676 430020.164 4414293.293 57.673 430013.842 4414294.823 57.696 430011.720 4414295.314 57.703 430008.867 4414295.953 57.712 430006.652 4414296.469 57.705 430004.662 4414296.895 57.711 430002.477 4414297.374 57.715 430000.398 4414297.799 57.721 429997.939 4414298.319 57.734 429995.859 4414298.733 57.744 429993.487 4414299.217 57.756 429990.721 4414299.771 57.770 429988.378 4414300.261 57.771 429985.935 4414300.745 57.781 429983.919 4414301.170 57.790 429981.932 4414301.575 57.793 429979.760 4414302.012 57.803 429977.666 4414302.428 57.820 429975.505 4414302.872 57.821 429973.083 4414303.364 57.830 429970.487 4414303.913 57.837,,,,,,,,,
35,429924.964 4414312.971 58.061 429924.723 4414313.084 58.072 429922.373 4414313.620 58.085 429919.966 4414314.096 58.089 429917.809 4414314.533 58.099 429915.664 4414314.972 58.105 429913.413 4414315.409 58.119 429911.308 4414315.847 58.124 429909.157 4414316.269 58.135 429906.854 4414316.727 58.141 429904.420 4414317.237 58.145 429902.197 4414317.683 58.148 429899.856 4414318.158 58.148 429897.721 4414318.588 58.160 429895.666 4414319.002 58.168 429893.433 4414319.457 58.170 429891.239 4414319.901 58.181 429889.136 4414320.326 58.186 429886.090 4414320.944 58.194 429884.123 4414321.347 58.200 429882.054 4414321.765 58.210 429879.969 4414322.181 58.214 429877.951 4414322.587 58.220 429875.866 4414322.996 58.226 429873.622 4414323.464 58.237 429871.531 4414323.880 58.252 429869.441 4414324.317 58.251 429867.312 4414324.756 58.254 429864.951 4414325.224 58.264 429862.615 4414325.702 58.274 429860.530 4414326.124 58.278 429857.526 4414326.744 58.286 429855.326 4414327.185 58.293 429853.069 4414327.650 58.302 429850.728 4414328.130 58.303 429848.676 4414328.533 58.306 429846.352 4414329.005 58.314 429843.207 4414329.643 58.325 429840.411 4414330.217 58.331 429838.271 4414330.641 58.335 429836.175 4414331.073 58.341 429833.840 4414331.542 58.357 429831.587 4414332.001 58.370 429829.551 4414332.411 58.379 429827.572 4414332.820 58.381 429825.398 4414333.255 58.389 429823.371 4414333.669 58.398 429821.349 4414334.066 58.417 429819.189 4414334.502 58.427 429817.080 4414334.939 58.428 429815.036 4414335.354 58.435 429812.898 4414335.786 58.442 429810.935 4414336.189 58.448 429808.935 4414336.590 58.462 429806.489 4414337.079 58.469 429804.409 4414337.504 58.477 429801.099 4414338.184 58.492 429799.023 4414338.606 58.501 429796.912 4414339.020 58.510 429794.674 4414339.483 58.515 429792.542 4414339.920 58.518 429789.609 4414340.505 58.532 429787.445 4414340.938 58.551 429784.986 4414341.448 58.559 429782.117 4414342.016 58.567 429780.092 4414342.457 58.570 429778.044 4414342.863 58.569 429775.104 4414343.462 58.586 429773.091 4414343.858 58.596 429770.788 4414344.331 58.601 429768.669 4414344.762 58.604 429766.648 4414345.183 58.612 429764.523 4414345.621 58.620 429762.973 4414345.921 58.629,,,,,,,,,
36,429762.063 4414343.138 58.606 429762.272 4414343.040 58.555 429764.292 4414342.596 58.555 429766.326 4414342.178 58.550 429768.613 4414341.711 58.535 429770.738 4414341.275 58.524 429772.913 4414340.832 58.517 429774.976 4414340.408 58.509 429777.565 4414339.881 58.496 429779.983 4414339.389 58.495 429782.958 4414338.789 58.477 429785.393 4414338.286 58.467 429787.659 4414337.843 58.459 429789.698 4414337.416 58.447 429791.808 4414336.994 58.439 429793.795 4414336.580 58.428 429795.883 4414336.160 58.417 429798.184 4414335.701 58.413 429800.205 4414335.288 58.403 429803.122 4414334.685 58.392 429805.085 4414334.278 58.387 429807.259 4414333.852 58.382 429809.352 4414333.432 58.377 429811.627 4414332.952 58.359 429814.072 4414332.481 58.350 429816.235 4414332.033 58.342 429818.349 4414331.618 58.338 429820.429 4414331.186 58.324 429822.748 4414330.720 58.318 429825.008 4414330.253 58.312 429827.155 4414329.831 58.308 429829.241 4414329.397 58.294 429831.474 4414328.939 58.289 429833.473 4414328.540 58.280 429835.676 4414328.080 58.261 429837.864 4414327.636 58.261 429839.928 4414327.228 58.260 429842.136 4414326.784 58.251 429844.216 4414326.353 58.251 429846.672 4414325.862 58.246 429848.695 4414325.456 58.245 429851.128 4414324.963 58.240 429853.091 4414324.564 58.230 429855.304 4414324.122 58.219 429857.380 4414323.695 58.221 429859.702 4414323.220 58.209 429861.809 4414322.786 58.203 429864.632 4414322.226 58.198 429866.855 4414321.768 58.194 429869.076 4414321.317 58.187 429871.053 4414320.901 58.180 429873.205 4414320.489 58.181 429875.190 4414320.072 58.168 429877.476 4414319.610 58.165 429880.325 4414319.035 58.158 429882.468 4414318.607 58.156 429885.565 4414317.984 58.150 429887.537 4414317.577 58.145 429889.512 4414317.184 58.143 429891.617 4414316.738 58.127 429893.803 4414316.296 58.127 429895.974 4414315.863 58.127 429898.365 4414315.392 58.116 429900.381 4414314.976 58.112 429902.499 4414314.547 58.108 429904.602 4414314.119 58.100 429907.252 4414313.590 58.096 429909.277 4414313.186 58.087 429911.368 4414312.765 58.079 429913.872 4414312.264 58.087 429915.936 4414311.842 58.060 429918.798 4414311.265 58.057 429921.063 4414310.817 58.052 429923.757 4414310.239 58.040,,,,,,,,,
37,430129.881 4414285.584 57.365 430134.588 4414289.591 57.391 430136.670 4414291.625 57.410 430138.834 4414293.656 57.432 430141.007 4414295.802 57.469 430143.117 4414297.921 57.491 430145.166 4414300.071 57.513 430147.212 4414302.207 57.529 430149.226 4414304.431 57.562 430151.282 4414306.694 57.573 430153.228 4414308.887 57.594 430155.212 4414311.177 57.623 430157.169 4414313.498 57.659 430159.107 4414315.902 57.671 430161.013 4414318.193 57.690 430164.603 4414323.000 57.742 430166.416 4414325.431 57.756 430168.171 4414327.859 57.778 430169.970 4414330.310 57.804 430173.871 4414335.994 57.856 430176.444 4414340.256 57.880 430178.160 4414342.884 57.916 430179.712 4414345.472 57.939 430181.225 4414348.029 57.961 430182.723 4414350.765 57.987 430184.191 4414353.279 58.009 430185.575 4414355.962 58.043 430186.962 4414358.648 58.067 430188.301 4414361.266 58.084 430189.727 4414364.063 58.107 430191.003 4414366.687 58.128 430192.229 4414369.523 58.151 430193.478 4414372.183 58.171 430194.649 4414374.888 58.191 430196.157 4414378.117 58.290 430197.126 4414380.507 58.230 430198.164 4414383.372 58.252 430199.220 4414386.101 58.276 430200.167 4414388.871 58.290 430201.145 4414391.775 58.312 430202.128 4414394.690 58.333 430203.063 4414397.503 58.369 430204.689 4414402.326 58.401 430205.748 4414406.114 58.438 430206.527 4414409.063 58.459 430207.304 4414411.947 58.477 430208.082 4414414.798 58.491 430208.798 4414417.709 58.512 430209.463 4414420.551 58.524 430210.196 4414423.721 58.551 430210.908 4414426.508 58.571 430211.491 4414430.031 58.580,,,,,,,,,
38,430224.774 4414494.661 58.915 430226.040 4414500.318 58.890 430226.570 4414503.128 58.875 430227.138 4414506.053 58.857 430227.747 4414508.935 58.845 430228.258 4414511.754 58.833 430228.896 4414514.648 58.810 430232.416 4414532.432 58.722 430234.782 4414543.986 58.552 430238.445 4414562.729 58.347 430240.365 4414570.565 58.207 430240.787 4414572.247 58.230 430240.921 4414575.285 58.159 430241.376 4414578.715 58.156,,,,,,,,,
39,429848.094 4414861.195 59.730 429853.102 4414857.760 59.728 429855.456 4414856.162 59.707 429857.216 4414854.970 59.699 429858.929 4414853.807 59.688 429860.750 4414852.544 59.679 429862.686 4414851.219 59.658 429864.688 4414849.855 59.645 429867.560 4414848.190 59.614 429869.889 4414846.479 59.591 429871.677 4414845.106 59.570 429873.749 4414843.692 59.556 429876.280 4414841.975 59.531 429877.949 4414840.847 59.514 429879.707 4414839.640 59.503 429881.854 4414838.177 59.494 429883.577 4414837.013 59.480 429885.303 4414835.837 59.467 429887.035 4414834.662 59.455 429888.967 4414833.317 59.432 429890.889 4414832.041 59.416 429892.688 4414830.787 59.400 429894.357 4414829.656 59.387 429896.318 4414828.323 59.368 429898.309 4414826.966 59.351 429901.810 4414824.575 59.323 429903.627 4414823.334 59.308 429905.663 4414821.953 59.293 429907.355 4414820.797 59.279 429909.924 4414819.057 59.259 429911.702 4414817.845 59.240 429913.657 4414816.514 59.223 429915.350 4414815.364 59.207 429917.084 4414814.179 59.188 429918.957 4414812.900 59.168 429920.656 4414811.750 59.151 429922.345 4414810.594 59.135 429924.039 4414809.447 59.124 429926.564 4414807.723 59.096 429928.345 4414806.520 59.074 429930.361 4414805.165 59.047 429932.110 4414803.958 59.026 429933.789 4414802.862 59.017 429936.352 4414801.070 58.994 429938.135 4414799.846 58.984 429939.980 4414798.588 58.968 429941.849 4414797.328 58.944 429943.513 4414796.192 58.930 429945.275 4414795.007 58.916 429947.130 4414793.737 58.894 429949.010 4414792.461 58.875 429950.837 4414791.226 58.859 429953.304 4414789.540 58.838 429955.760 4414787.852 58.821 429958.436 4414786.038 58.799 429960.116 4414784.891 58.785 429962.027 4414783.591 58.775 429963.952 4414782.288 58.762 429965.698 4414781.084 58.753 429967.926 4414779.562 58.723 429969.868 4414778.250 58.707 429971.729 4414776.983 58.696 429973.470 4414775.797 58.683 429975.272 4414774.578 58.670 429977.149 4414773.288 58.655 429979.076 4414771.978 58.641 429980.781 4414770.813 58.627 429982.855 4414769.392 58.609 429984.627 4414768.214 58.594 429986.542 4414766.891 58.581 429989.122 4414765.129 58.560 429991.239 4414763.725 58.550 429993.304 4414762.293 58.533 429995.285 4414760.947 58.518 429996.973 4414759.785 58.514 429999.831 4414757.807 58.494 430001.702 4414756.563 58.476 430003.460 4414755.362 58.462 430005.173 4414754.199 58.450 430007.332 4414752.736 58.440 430009.836 4414751.043 58.433 430014.891 4414747.604 58.425 430022.241 4414742.561 58.408 430032.175 4414735.847 58.304 430034.353 4414734.346 58.279 430036.078 4414733.175 58.269 430037.847 4414731.972 58.256 430039.695 4414730.714 58.250 430041.467 4414729.506 58.253 430043.337 4414728.222 58.256 430045.061 4414727.052 58.257 430047.140 4414725.630 58.252 430049.062 4414724.328 58.244 430051.571 4414722.619 58.232 430053.255 4414721.458 58.223 430055.810 4414719.730 58.211 430057.540 4414718.552 58.203 430059.376 4414717.313 58.203 430061.235 4414716.053 58.202 430062.963 4414714.879 58.205 430064.995 4414713.562 58.213 430066.903 4414712.216 58.206 430068.705 4414710.980 58.206 430070.862 4414709.520 58.205 430073.323 4414707.871 58.195 430075.785 4414706.208 58.183 430077.597 4414704.971 58.175 430079.434 4414703.743 58.175 430081.854 4414702.114 58.185 430083.530 4414700.985 58.192 430085.265 4414699.826 58.197 430087.384 4414698.410 58.204 430089.135 4414697.262 58.211 430090.888 4414696.086 58.209 430092.585 4414694.966 58.212 430095.348 4414693.220 58.213 430097.444 4414691.808 58.222 430099.206 4414690.672 58.219 430100.977 4414689.534 58.224 430103.134 4414688.151 58.231 430105.011 4414686.953 58.236 430106.863 4414685.793 58.239 430108.827 4414684.553 58.238 430110.882 4414683.282 58.241 430113.820 4414681.452 58.240 430115.833 4414680.203 58.243 430117.859 4414678.968 58.249 430119.630 4414677.889 58.252 430121.479 4414676.777 58.258 430123.420 4414675.616 58.258 430125.324 4414674.465 58.268 430127.592 4414673.097 58.275 430129.459 4414671.992 58.277 430131.363 4414670.889 58.281 430133.113 4414669.843 58.291 430135.600 4414668.405 58.297 430137.572 4414667.244 58.299 430139.401 4414666.183 58.299 430141.908 4414664.752 58.307 430143.768 4414663.689 58.312 430145.910 4414662.475 58.320 430147.890 4414661.345 58.328 430149.642 4414660.366 58.337 430151.518 4414659.307 58.339 430153.559 4414658.214 58.342 430155.536 4414657.071 58.351 430157.608 4414655.920 58.365 430159.546 4414654.844 58.372 430161.370 4414653.820 58.382 430163.192 4414652.826 58.391 430165.073 4414651.795 58.400 430167.538 4414650.434 58.401 430169.304 4414649.462 58.403 430171.198 4414648.429 58.404 430173.913 4414646.951 58.402 430175.889 4414645.844 58.404 430177.964 4414644.722 58.408 430181.018 4414643.048 58.414 430183.652 4414641.656 58.431 430185.777 4414640.439 58.420 430187.557 4414639.451 58.418 430189.461 4414638.415 58.424 430191.394 4414637.340 58.427 430193.201 4414636.342 58.425 430195.336 4414635.182 58.428 430197.170 4414634.171 58.427 430199.195 4414633.057 58.425 430200.965 4414632.073 58.425 430202.759 4414631.086 58.425 430204.746 4414629.989 58.425 430207.399 4414628.547 58.421 430209.336 4414627.482 58.415 430211.447 4414626.320 58.418 430213.241 4414625.325 58.412 430215.468 4414624.087 58.412 430217.500 4414622.908 58.413 430219.340 4414621.919 58.412 430221.340 4414620.859 58.415 430223.231 4414619.841 58.414 430223.936 4414619.461 58.438,,,,,,,,,
40,430224.211 4414619.967 58.419 430213.616 4414625.753 58.498 430208.134 4414628.714 58.334 430206.216 4414629.775 58.341 430204.089 4414630.937 58.341 430202.246 4414631.968 58.341 430200.141 4414633.127 58.339 430197.533 4414634.561 58.337 430194.927 4414635.982 58.343 430154.756 4414658.093 58.266 430152.093 4414659.571 58.263 430149.380 4414661.091 58.253 430147.361 4414662.242 58.245 430145.615 4414663.225 58.238 430143.775 4414664.269 58.234 430141.180 4414665.763 58.228 430139.276 4414666.855 58.226 430137.326 4414667.992 58.224 430135.316 4414669.136 58.222 430133.426 4414670.262 58.213 430130.832 4414671.791 58.202 430128.248 4414673.300 58.200 430126.405 4414674.395 58.193 430124.651 4414675.476 58.182 430122.910 4414676.521 58.177 430121.154 4414677.585 58.174 430119.388 4414678.648 58.169 430116.663 4414680.317 58.165 430114.666 4414681.522 58.163 430112.690 4414682.761 58.161 430110.950 4414683.843 58.163 430108.821 4414685.171 58.164 430106.915 4414686.374 58.163 430105.168 4414687.485 58.163 430103.420 4414688.596 58.162 430100.806 4414690.266 58.152 430099.021 4414691.426 58.148 430097.127 4414692.640 58.147 430094.235 4414694.520 58.144 430092.157 4414695.875 58.140 430090.365 4414697.060 58.136 430088.642 4414698.194 58.136 430086.949 4414699.322 58.130 430085.249 4414700.473 58.126 430083.454 4414701.664 58.117 430081.445 4414703.021 58.111 430079.742 4414704.175 58.103 430077.899 4414705.409 58.099 430076.073 4414706.643 58.106 430073.959 4414708.064 58.121 430072.141 4414709.292 58.129 430069.571 4414711.035 58.135 430067.849 4414712.202 58.132 430065.535 4414713.804 58.133 430063.122 4414715.400 58.129 430061.315 4414716.634 58.126 430059.415 4414717.919 58.125 430057.651 4414719.131 58.126 430055.922 4414720.294 58.134 430054.216 4414721.461 58.142 430052.532 4414722.611 58.153 430050.587 4414723.929 58.163 430048.731 4414725.195 58.172 430046.905 4414726.431 58.180 430045.114 4414727.660 58.183 430043.127 4414729.018 58.181 430041.428 4414730.152 58.175 430039.692 4414731.348 58.174 430037.815 4414732.636 58.181 430035.976 4414733.870 58.196 430031.332 4414737.027 58.254 430022.574 4414742.992 58.332 430015.082 4414748.097 58.321 430013.314 4414749.309 58.332 430011.045 4414750.833 58.341 430009.341 4414751.991 58.357 430007.270 4414753.383 58.359 430005.360 4414754.703 58.366 430003.464 4414755.989 58.380 430001.479 4414757.343 58.395 429998.006 4414759.694 58.431 429996.175 4414760.957 58.423 429994.392 4414762.171 58.436 429992.613 4414763.385 58.448 429990.956 4414764.550 58.457 429989.033 4414765.832 58.477 429986.504 4414767.555 58.487 429984.544 4414768.906 58.504 429982.832 4414770.042 58.522 429981.046 4414771.263 58.534 429979.101 4414772.589 58.549 429977.302 4414773.806 58.567 429975.441 4414775.083 58.578 429973.655 4414776.286 58.591 429971.112 4414778.012 58.606 429969.425 4414779.176 58.622 429967.675 4414780.375 58.633 429965.967 4414781.499 58.661 429963.454 4414783.236 58.675 429960.937 4414784.957 58.687 429958.309 4414786.755 58.706 429956.464 4414787.999 58.725 429954.805 4414789.147 58.730 429952.858 4414790.472 58.744 429951.088 4414791.666 58.760 429949.406 4414792.820 58.778 429947.610 4414794.038 58.792 429945.224 4414795.673 58.818 429943.525 4414796.816 58.836 429941.754 4414798.020 58.859 429939.821 4414799.345 58.877 429938.129 4414800.482 58.893 429936.297 4414801.726 58.905 429934.340 4414803.082 58.919 429932.404 4414804.374 58.936 429930.513 4414805.658 58.962 429928.751 4414806.886 58.975 429927.005 4414808.068 59.000 429925.134 4414809.325 59.029 429923.478 4414810.456 59.044 429921.499 4414811.812 59.057 429919.549 4414813.133 59.075 429917.802 4414814.332 59.091 429915.874 4414815.638 59.109 429914.447 4414816.621 59.122 429911.971 4414818.307 59.151 429910.179 4414819.529 59.169 429908.256 4414820.835 59.187 429906.421 4414822.081 59.198 429903.855 4414823.822 59.220 429902.094 4414825.038 59.234 429899.512 4414826.782 59.273 429897.746 4414827.984 59.273 429895.877 4414829.292 59.286 429894.078 4414830.507 59.305 429892.333 4414831.691 59.315 429890.607 4414832.869 59.334 429888.828 4414834.074 59.355 429887.131 4414835.239 59.370 429885.072 4414836.642 59.391 429883.248 4414837.889 59.407 429881.568 4414839.047 59.413 429879.890 4414840.181 59.427 429878.146 4414841.379 59.434 429876.479 4414842.515 59.451 429874.780 4414843.682 59.463 429872.743 4414845.059 59.483 429866.480 4414849.316 59.551 429864.442 4414850.698 59.568 429862.675 4414851.894 59.590 429860.811 4414853.177 59.605 429859.009 4414854.444 59.615 429857.343 4414855.570 59.628 429854.834 4414857.263 59.639 429853.156 4414858.448 59.655 429851.495 4414859.570 59.675 429848.435 4414861.643 59.764,,,,,,,,,
