id(T),xyz(T),lane_type(L),lane_color(L)
0,429768.529 4414604.459 59.696 429767.437 4414599.569 59.686 429766.444 4414594.653 59.682 429765.461 4414589.741 59.673 429764.459 4414584.843 59.653 429763.474 4414579.949 59.632 429762.474 4414575.041 59.622 429761.503 4414570.138 59.607 429760.510 4414565.284 59.589 429759.522 4414560.359 59.585 429758.520 4414555.447 59.570 429757.905 4414552.429 59.548 429757.881 4414552.213 59.658,2,
1,429746.072 4414512.097 59.267 429745.178 4414507.239 59.233 429744.274 4414502.892 59.213 429743.568 4414499.034 59.194 429742.460 4414494.127 59.160 429741.481 4414489.220 59.132 429740.489 4414484.338 59.102 429739.499 4414479.426 59.076 429738.510 4414474.518 59.046 429737.513 4414469.594 59.018 429736.520 4414464.699 58.983 429735.524 4414459.778 58.954 429734.535 4414454.909 58.927 429733.551 4414450.014 58.892 429732.557 4414445.120 58.862 429731.161 4414438.220 58.826 429731.143 4414438.115 58.824 429730.150 4414433.213 58.798 429729.159 4414428.314 58.771 429728.165 4414423.413 58.750 429727.176 4414418.528 58.726 429726.195 4414413.603 58.697 429725.208 4414408.727 58.665 429724.222 4414403.841 58.640 429723.216 4414398.944 58.618 429722.243 4414394.135 58.580 429721.262 4414389.258 58.565 429720.257 4414384.353 58.543 429719.326 4414379.837 58.516 429719.272 4414379.522 58.603,2,
2,429736.029 4414427.049 58.875 429735.056 4414422.151 58.842 429734.069 4414417.230 58.812 429733.076 4414412.329 58.786 429732.061 4414407.315 58.771 429731.091 4414402.445 58.736 429730.115 4414397.551 58.713 429729.141 4414392.698 58.660 429728.127 4414387.772 58.622 429727.155 4414382.903 58.635 429726.150 4414378.446 58.619 429726.072 4414378.131 58.599,2,
3,429732.534 4414427.306 58.818 429731.546 4414422.394 58.797 429730.553 4414417.486 58.767 429729.567 4414412.574 58.734 429728.580 4414407.677 58.712 429727.601 4414402.795 58.681 429726.615 4414397.906 58.667 429725.624 4414392.996 58.629 429724.623 4414388.124 58.611 429723.640 4414383.244 58.594 429722.879 4414379.541 58.587 429722.719 4414378.817 58.601,2,
4,429704.997 4414368.584 58.315 429704.035 4414368.804 58.326 429700.546 4414369.518 58.274 429695.653 4414370.505 58.205 429691.182 4414371.328 58.122 429651.124 4414379.553 58.161 429639.411 4414379.984 58.210 429634.423 4414380.133 58.255 429629.427 4414380.383 58.289 429624.623 4414381.278 58.315 429619.751 4414382.246 58.346 429614.854 4414383.221 58.365 429609.936 4414384.236 58.383 429605.015 4414385.225 58.415 429600.130 4414386.204 58.445 429595.228 4414387.189 58.465 429590.303 4414388.185 58.484 429582.279 4414389.824 58.527 429581.989 4414389.868 58.528 429577.121 4414390.859 58.559 429572.214 4414391.838 58.584 429567.319 4414392.827 58.611 429562.378 4414393.836 58.637 429557.458 4414394.811 58.657 429552.562 4414395.793 58.679 429547.681 4414396.781 58.705 429542.774 4414397.762 58.726 429537.857 4414398.754 58.749 429532.969 4414399.741 58.776 429528.082 4414400.717 58.796 429519.393 4414402.465 58.830 429519.036 4414402.545 58.828 429514.110 4414403.545 58.854 429509.243 4414404.527 58.882 429504.310 4414405.519 58.903 429499.430 4414406.507 58.925 429494.516 4414407.505 58.946 429489.626 4414408.500 58.960 429484.728 4414409.484 58.979 429479.828 4414410.482 58.998 429474.934 4414411.475 59.025 429470.034 4414412.475 59.059 429465.116 4414413.472 59.073 429460.223 4414414.462 59.069 429455.350 4414415.470 59.088 429453.666 4414415.832 59.097 429453.245 4414415.885 59.116 429448.344 4414416.869 59.153 429443.481 4414417.843 59.175 429438.552 4414418.833 59.197 429434.933 4414419.813 59.230 429434.650 4414419.888 59.245,2,
5,429473.906 4414408.073 59.099 429469.000 4414409.065 59.125 429464.105 4414410.065 59.126 429459.248 4414411.057 59.125 429453.136 4414412.308 59.155 429452.672 4414412.393 59.168 429447.774 4414413.390 59.201 429442.910 4414414.391 59.221 429438.046 4414415.374 59.240 429435.001 4414416.012 59.266,2,
6,429406.788 4414425.690 59.353 429404.755 4414425.953 59.378 429399.252 4414427.655 59.396 429394.489 4414429.222 59.435 429389.748 4414430.855 59.453 429385.019 4414432.528 59.472 429380.354 4414434.311 59.485 429375.698 4414436.191 59.500 429371.102 4414438.150 59.523 429366.547 4414440.203 59.546 429362.005 4414442.365 59.563 429357.532 4414444.564 59.583 429353.189 4414446.818 59.596 429348.795 4414449.308 59.618 429344.426 4414451.836 59.639 429340.204 4414454.422 59.655 429337.764 4414455.946 59.665 429337.421 4414456.213 59.674 429333.232 4414458.928 59.700 429329.082 4414461.756 59.733 429324.994 4414464.654 59.757 429321.021 4414467.641 59.784 429317.084 4414470.750 59.809 429313.231 4414473.897 59.833 429309.432 4414477.142 59.864 429305.667 4414480.502 59.883 429301.997 4414483.903 59.908 429298.416 4414487.384 59.937 429294.902 4414490.915 59.962 429291.436 4414494.527 59.987 429287.150 4414499.165 60.016 429286.767 4414499.666 60.016 429283.489 4414503.490 60.042 429280.339 4414507.361 60.063 429277.262 4414511.308 60.086 429274.232 4414515.277 60.112 429271.276 4414519.309 60.134 429268.398 4414523.380 60.163 429265.555 4414527.525 60.196 429262.769 4414531.664 60.217 429259.973 4414535.823 60.245 429257.174 4414539.973 60.273 429254.381 4414544.128 60.295 429251.577 4414548.302 60.316 429246.783 4414555.405 60.349 429246.609 4414555.647 60.352 429243.813 4414559.810 60.367 429241.014 4414563.981 60.383 429238.182 4414568.159 60.403 429235.402 4414572.272 60.423 429232.635 4414576.385 60.446 429229.822 4414580.521 60.469 429227.023 4414584.668 60.490 429224.231 4414588.801 60.514 429221.403 4414592.944 60.541 429218.622 4414597.084 60.564 429215.825 4414601.204 60.586 429213.026 4414605.336 60.609 429210.224 4414609.489 60.629 429205.843 4414616.000 60.668 429205.604 4414616.330 60.676 429202.820 4414620.490 60.696 429200.014 4414624.636 60.718 429197.213 4414628.765 60.743 429194.416 4414632.902 60.768 429191.617 4414637.040 60.793 429188.814 4414641.183 60.809 429185.994 4414645.354 60.835 429183.203 4414649.497 60.861 429180.379 4414653.669 60.888 429177.595 4414657.790 60.906 429174.790 4414661.951 60.926 429171.983 4414666.099 60.944 429167.290 4414673.019 60.986 429167.218 4414673.159 60.985 429164.405 4414677.324 61.013 429161.600 4414681.487 61.037 429158.775 4414685.663 61.058 429155.957 4414689.795 61.079 429153.154 4414693.964 61.096 429150.356 4414698.076 61.119 429147.588 4414702.202 61.148 429144.784 4414706.343 61.166 429141.970 4414710.515 61.184 429139.136 4414714.716 61.198 429136.352 4414718.851 61.226 429133.558 4414722.987 61.263 429130.751 4414727.132 61.291 429128.043 4414731.148 61.318 429127.738 4414731.579 61.320 429124.950 4414735.722 61.344 429122.137 4414739.882 61.370 429119.335 4414744.020 61.393 429116.544 4414748.167 61.412 429113.772 4414752.273 61.436 429110.984 4414756.395 61.457 429108.202 4414760.520 61.477 429105.442 4414764.645 61.505 429102.687 4414768.876 61.532 429100.029 4414773.141 61.549 429097.515 4414777.491 61.564 429095.172 4414781.901 61.601 429093.405 4414785.349 61.630 429093.084 4414786.163 61.633 429090.901 4414790.681 61.661 429088.779 4414795.201 61.684 429086.720 4414799.726 61.701 429084.691 4414804.292 61.715 429082.724 4414808.889 61.735 429080.891 4414813.536 61.764 429079.214 4414818.250 61.789 429077.691 4414823.024 61.813 429076.266 4414827.824 61.848 429074.925 4414832.632 61.883 429073.702 4414837.468 61.909 429072.578 4414842.379 61.933 429071.580 4414847.273 61.953 429070.960 4414850.432 61.966 429070.929 4414850.875 61.964 429070.124 4414855.817 61.990 429069.421 4414860.740 62.019 429068.835 4414865.722 62.041 429068.337 4414870.685 62.056 429067.858 4414875.652 62.074 429067.387 4414880.657 62.096 429066.939 4414885.624 62.123 429066.496 4414890.625 62.147 429066.036 4414895.603 62.167 429065.581 4414900.606 62.185 429065.106 4414905.569 62.207 429064.618 4414910.545 62.226 429064.091 4414915.510 62.240 429063.423 4414921.597 62.264 429063.382 4414921.941 62.267 429062.835 4414926.895 62.294 429062.293 4414931.864 62.322 429061.733 4414936.807 62.342 429061.139 4414941.735 62.354 429060.892 4414943.457 62.360 429059.465 4414955.450 62.397 429057.145 4414964.777 62.456 429055.894 4414969.638 62.466 429054.541 4414974.437 62.490 429054.352 4414975.061 62.494 429054.230 4414975.484 62.496 429052.741 4414980.256 62.517 429051.211 4414985.017 62.549 429049.620 4414989.782 62.572 429047.971 4414994.507 62.596 429046.254 4414999.195 62.616 429044.486 4415003.875 62.646 429042.598 4415008.548 62.659 429040.667 4415013.184 62.660 429038.719 4415017.836 62.686 429037.457 4415020.809 62.703 429036.004 4415024.149 62.735 429035.914 4415024.359 62.730,2,
7,429044.758 4414985.217 62.643 429043.157 4414989.919 62.669 429041.490 4414994.618 62.689 429039.750 4414999.275 62.706 429037.915 4415003.923 62.728 429036.019 4415008.547 62.745 429034.073 4415013.175 62.767 429032.101 4415017.768 62.782 429030.683 4415021.091 62.800 429030.522 4415021.477 62.778,2,
8,429042.835 4415040.833 62.691 429047.325 4415043.108 62.690 429051.765 4415045.310 62.670 429056.200 4415047.565 62.636 429060.985 4415049.966 62.604 429061.567 4415050.267 62.602 429066.067 4415052.510 62.570 429070.511 4415054.738 62.541 429074.926 4415056.969 62.511 429079.113 4415059.070 62.486 429080.758 4415059.923 62.483 429081.805 4415060.432 62.481 429086.268 4415062.654 62.454 429090.710 4415064.871 62.404 429095.170 4415067.130 62.420 429099.609 4415069.386 62.367 429104.020 4415071.709 62.332 429108.388 4415074.137 62.313 429112.773 4415076.616 62.306 429117.080 4415079.215 62.275 429121.222 4415081.892 62.249 429125.303 4415084.788 62.234 429129.428 4415087.773 62.206 429133.406 4415090.742 62.182 429137.439 4415093.870 62.150 429137.741 4415094.174 62.144,2,
9,429160.681 4415115.386 62.013 429161.143 4415116.467 62.017 429162.252 4415117.943 62.005 429170.439 4415127.727 61.931 429173.191 4415131.499 61.907 429174.739 4415133.577 61.885 429179.225 4415140.112 61.846 429181.999 4415144.422 61.814 429184.550 4415148.707 61.773 429187.080 4415153.079 61.746 429188.337 4415155.392 61.735 429190.042 4415158.579 61.722 429192.401 4415163.025 61.713 429194.585 4415167.492 61.702 429196.611 4415171.931 61.688 429198.633 4415176.609 61.624 429200.473 4415181.205 61.544 429202.191 4415185.954 61.480 429203.774 4415190.681 61.439 429205.211 4415195.456 61.523 429206.507 4415200.315 61.551 429207.662 4415205.199 61.520 429208.786 4415210.099 61.504 429209.817 4415214.963 61.489 429210.815 4415219.932 61.459 429211.855 4415224.897 61.441 429212.838 4415229.860 61.420 429213.862 4415234.733 61.401 429214.829 4415239.668 61.384 429215.806 4415244.441 61.365 429216.877 4415249.726 61.342 429217.052 4415250.562 61.336 429218.045 4415255.319 61.311 429218.227 4415256.001 61.306 429228.282 4415305.711 61.129 429229.168 4415310.656 61.133 429230.213 4415315.593 61.110 429231.189 4415320.464 61.094 429232.170 4415325.392 61.075 429233.188 4415330.317 61.061 429234.181 4415335.226 61.046 429234.723 4415337.828 61.039 429234.750 4415337.999 61.041 429235.724 4415342.854 61.023 429236.709 4415347.718 61.002 429237.699 4415352.664 61.006 429238.685 4415357.550 60.996 429239.659 4415362.444 60.973 429240.643 4415367.358 60.957 429241.652 4415372.262 60.938 429242.630 4415377.124 60.922 429243.617 4415382.015 60.910 429244.610 4415386.924 60.897 429245.587 4415391.819 60.887 429246.576 4415396.718 60.878 429247.560 4415401.612 60.869 429248.566 4415406.508 60.861 429249.573 4415411.432 60.857 429250.780 4415416.283 60.852 429252.150 4415421.075 60.847 429252.742 4415423.075 60.844 429252.885 4415423.321 60.842 429254.279 4415428.118 60.840 429255.594 4415432.930 60.843 429256.754 4415437.744 60.850 429257.793 4415442.615 60.849 429258.785 4415447.503 60.859 429259.771 4415452.397 60.870 429260.764 4415457.289 60.891 429261.754 4415462.189 60.918 429262.741 4415467.038 60.937 429263.500 4415470.880 60.954 429264.415 4415474.854 60.985 429264.923 4415476.149 60.996 429265.459 4415476.945 61.000,2,
10,429253.903 4415453.878 60.960 429254.909 4415458.734 60.976 429255.890 4415463.586 61.001 429256.841 4415468.410 61.035 429257.832 4415473.299 61.034 429258.602 4415476.868 61.034 429259.953 4415483.716 61.060,2,
11,429262.381 4415480.670 61.045 429261.437 4415476.232 61.026 429260.861 4415473.002 61.006 429259.872 4415468.168 60.988 429258.871 4415463.253 60.956 429257.879 4415458.307 60.939 429256.870 4415453.288 60.919,2,
12,429285.840 4415490.334 61.056 429289.529 4415486.938 61.046 429293.216 4415483.576 61.005 429296.881 4415480.197 60.976 429300.541 4415476.828 60.960 429302.108 4415475.407 60.953 429305.750 4415472.045 60.945 429309.436 4415468.650 60.931 429313.112 4415465.264 60.896 429316.785 4415461.876 60.906 429320.463 4415458.500 60.884 429324.134 4415455.123 60.860 429327.810 4415451.752 60.821 429331.477 4415448.376 60.783 429335.157 4415444.991 60.779 429338.819 4415441.586 60.751 429342.501 4415438.183 60.759 429346.199 4415434.803 60.715 429353.329 4415428.258 60.666 429353.341 4415428.236 60.683 429357.014 4415424.853 60.663 429360.673 4415421.477 60.658 429364.346 4415418.091 60.645 429368.028 4415414.698 60.622 429371.690 4415411.313 60.600 429375.361 4415407.937 60.578 429379.039 4415404.547 60.553 429382.731 4415401.169 60.530 429386.390 4415397.786 60.519 429390.072 4415394.389 60.493 429393.739 4415391.011 60.485 429397.441 4415387.611 60.472 429401.122 4415384.230 60.439 429404.796 4415380.844 60.429 429408.659 4415377.296 60.404 429408.732 4415377.229 60.393 429412.399 4415373.836 60.376 429416.072 4415370.442 60.357 429419.747 4415367.062 60.337 429423.414 4415363.683 60.315 429427.084 4415360.304 60.306 429430.765 4415356.905 60.298 429434.445 4415353.511 60.281 429438.097 4415350.123 60.259 429441.760 4415346.701 60.238 429445.381 4415343.255 60.225 429448.971 4415339.777 60.214 429452.505 4415336.259 60.205 429455.980 4415332.682 60.183 429458.508 4415329.986 60.170 429458.623 4415329.847 60.169 429461.969 4415326.144 60.156 429465.274 4415322.387 60.143 429468.525 4415318.573 60.133 429471.695 4415314.709 60.119 429474.804 4415310.780 60.101 429477.833 4415306.814 60.076 429480.799 4415302.795 60.059 429483.694 4415298.734 60.052 429486.508 4415294.634 60.045 429489.290 4415290.478 60.053 429492.007 4415286.267 60.047 429494.634 4415282.029 60.040 429497.189 4415277.736 60.028 429499.673 4415273.374 60.004 429502.075 4415268.976 59.978 429504.386 4415264.534 59.969 429506.635 4415260.064 59.957 429508.814 4415255.578 59.969 429510.551 4415251.947 59.982 429510.511 4415251.916 59.990 429512.570 4415247.345 60.018 429514.579 4415242.737 60.028 429516.545 4415238.138 60.037 429518.480 4415233.509 60.046 429520.403 4415228.896 60.050 429522.314 4415224.278 60.037 429524.230 4415219.667 60.020 429526.161 4415215.042 60.029 429528.089 4415210.441 60.049 429529.998 4415205.844 60.067 429531.915 4415201.223 60.090 429533.833 4415196.597 60.088 429535.751 4415191.973 60.086 429537.660 4415187.362 60.085 429539.574 4415182.740 60.103 429541.503 4415178.131 60.120 429543.427 4415173.526 60.134 429547.009 4415164.979 60.163 429547.076 4415164.843 60.161 429549.023 4415160.251 60.183 429551.015 4415155.659 60.203 429553.025 4415151.106 60.221 429555.080 4415146.561 60.234 429557.209 4415142.044 60.250 429559.388 4415137.553 60.270 429561.624 4415133.042 60.284 429563.880 4415128.572 60.286 429566.188 4415124.126 60.298 429568.504 4415119.720 60.320 429570.886 4415115.333 60.338 429573.323 4415110.955 60.356 429575.802 4415106.620 60.376 429578.324 4415102.296 60.397 429580.882 4415097.992 60.407 429583.480 4415093.714 60.423 429587.907 4415086.628 60.449 429588.005 4415086.524 60.450 429590.733 4415082.321 60.460 429593.495 4415078.153 60.476 429596.293 4415074.013 60.495 429599.133 4415069.898 60.507 429601.424 4415066.613 60.508 429601.640 4415066.310 60.506,2,
13,429279.729 4415485.502 60.999 429281.380 4415484.643 61.003 429282.325 4415483.746 61.086 429285.697 4415480.646 60.949 429289.457 4415477.269 60.956 429293.135 4415473.881 60.903 429297.150 4415470.207 60.862 429297.544 4415469.834 60.877 429301.237 4415466.447 60.858 429304.904 4415463.075 60.848 429308.574 4415459.681 60.832 429312.242 4415456.297 60.812 429315.919 4415452.918 60.790 429319.604 4415449.529 60.763 429323.286 4415446.148 60.740 429326.961 4415442.755 60.715 429330.663 4415439.352 60.692 429334.333 4415435.963 60.645 429338.026 4415432.568 60.644 429341.691 4415429.185 60.619 429348.281 4415423.122 60.593 429348.483 4415422.927 60.593 429352.150 4415419.548 60.586 429355.850 4415416.145 60.576 429359.514 4415412.758 60.551 429363.179 4415409.379 60.540 429366.879 4415405.977 60.519 429370.553 4415402.574 60.500 429374.222 4415399.195 60.477 429377.922 4415395.811 60.454 429381.582 4415392.428 60.434 429385.272 4415389.029 60.410 429388.966 4415385.626 60.393 429392.648 4415382.238 60.375 429396.309 4415378.870 60.358 429399.978 4415375.492 60.335 429403.526 4415372.219 60.312 429403.909 4415371.874 60.309 429407.586 4415368.493 60.298 429411.257 4415365.102 60.270 429414.934 4415361.714 60.250 429418.605 4415358.318 60.238 429422.288 4415354.931 60.231 429425.973 4415351.533 60.210 429429.639 4415348.143 60.187 429433.317 4415344.756 60.166 429436.979 4415341.354 60.153 429440.605 4415337.930 60.147 429444.188 4415334.454 60.141 429447.718 4415330.903 60.131 429451.186 4415327.283 60.113 429453.059 4415325.268 60.102 429453.232 4415325.089 60.101 429456.570 4415321.395 60.090 429459.868 4415317.647 60.075 429463.126 4415313.820 60.062 429466.300 4415309.951 60.056 429469.401 4415306.013 60.048 429472.430 4415302.033 60.035 429475.386 4415297.987 60.020 429478.278 4415293.901 60.012 429481.104 4415289.778 60.007 429483.871 4415285.638 60.007 429486.554 4415281.449 60.006 429489.163 4415277.204 60.000 429491.688 4415272.895 59.980 429494.139 4415268.544 59.958 429496.512 4415264.150 59.947 429498.820 4415259.714 59.933 429501.031 4415255.190 59.919 429503.792 4415249.412 59.916 429504.062 4415248.802 59.924 429506.129 4415244.257 59.937 429508.116 4415239.658 59.943 429510.056 4415235.059 59.944 429511.971 4415230.426 59.954 429513.891 4415225.801 59.959 429515.807 4415221.201 59.940 429517.733 4415216.573 59.938 429519.661 4415211.983 59.964 429521.596 4415207.357 59.990 429523.510 4415202.747 59.999 429525.422 4415198.124 60.004 429527.340 4415193.493 60.000 429529.257 4415188.888 59.991 429531.155 4415184.287 59.991 429533.076 4415179.679 59.999 429534.982 4415175.075 60.016 429536.888 4415170.470 60.034 429540.255 4415162.426 60.075 429540.420 4415162.078 60.075 429542.371 4415157.476 60.093 429544.349 4415152.899 60.113 429546.380 4415148.301 60.129 429548.438 4415143.749 60.148 429550.576 4415139.217 60.171 429552.754 4415134.728 60.197 429554.974 4415130.241 60.213 429557.224 4415125.785 60.218 429559.518 4415121.325 60.224 429561.848 4415116.888 60.238 429564.214 4415112.500 60.256 429566.652 4415108.110 60.275 429569.128 4415103.759 60.298 429571.648 4415099.413 60.307 429574.202 4415095.112 60.316 429576.806 4415090.843 60.332 429581.697 4415083.007 60.355 429581.897 4415082.722 60.357 429584.620 4415078.536 60.374 429587.377 4415074.379 60.389 429590.172 4415070.235 60.398 429593.001 4415066.124 60.410 429595.407 4415062.711 60.425 429595.644 4415062.402 60.457 429595.830 4415062.117 60.458,2,
14,429582.826 4415087.920 60.390 429585.546 4415083.680 60.407 429588.277 4415079.482 60.423 429591.050 4415075.302 60.438 429593.856 4415071.158 60.451 429596.715 4415067.047 60.465 429598.767 4415064.236 60.482,2,
15,429600.490 4415055.575 60.458 429602.753 4415052.713 60.458 429605.822 4415048.756 60.474 429608.950 4415044.857 60.490 429612.132 4415041.021 60.494 429613.479 4415039.405 60.493,2,
16,429606.294 4415060.041 60.576 429610.169 4415054.939 60.547 429613.254 4415051.000 60.566 429616.391 4415047.100 60.581 429619.567 4415043.232 60.594 429622.786 4415039.380 60.612 429625.979 4415035.554 60.632 429629.189 4415031.730 60.645 429632.407 4415027.916 60.656 429635.656 4415024.100 60.664 429638.910 4415020.324 60.676 429642.185 4415016.568 60.688 429644.403 4415014.073 60.692 429644.463 4415014.067 60.689 429647.894 4415010.406 60.692 429651.376 4415006.816 60.707 429654.776 4415003.399 60.728 429658.317 4414999.880 60.715 429661.893 4414996.382 60.706 429665.513 4414992.925 60.711 429669.162 4414989.514 60.714 429672.857 4414986.147 60.710 429676.582 4414982.802 60.695 429680.326 4414979.496 60.687 429684.094 4414976.237 60.674 429687.884 4414973.014 60.657 429691.753 4414969.815 60.658 429695.601 4414966.678 60.658 429699.479 4414963.538 60.657 429705.919 4414958.334 60.650 429706.292 4414958.027 60.645 429710.202 4414954.847 60.642 429714.069 4414951.644 60.633 429717.921 4414948.425 60.624 429721.753 4414945.143 60.621 429725.524 4414941.877 60.607 429729.285 4414938.608 60.584 429732.994 4414935.303 60.568 429736.730 4414931.995 60.555 429740.480 4414928.651 60.538 429744.233 4414925.314 60.516 429747.981 4414922.004 60.482 429751.865 4414918.835 60.459 429756.169 4414916.119 60.414 429760.714 4414913.864 60.351 429765.321 4414911.876 60.310 429770.005 4414909.983 60.306 429780.701 4414905.938 60.623 429789.382 4414902.109 60.277 429804.337 4414892.653 60.151 429805.243 4414892.457 60.245 429808.642 4414890.145 59.860,2,
17,429639.475 4415008.755 60.575 429642.927 4415005.102 60.598 429646.459 4415001.547 60.617 429650.007 4414997.987 60.616 429653.550 4414994.472 60.604 429657.119 4414990.969 60.592 429660.739 4414987.518 60.590 429664.405 4414984.113 60.589 429668.077 4414980.742 60.591 429671.806 4414977.396 60.587 429675.544 4414974.088 60.586 429679.319 4414970.815 60.559 429683.128 4414967.603 60.541 429686.974 4414964.424 60.540 429690.844 4414961.263 60.571 429694.736 4414958.148 60.591 429701.188 4414952.963 60.585 429701.462 4414952.721 60.580 429705.351 4414949.559 60.568 429709.221 4414946.366 60.549 429713.041 4414943.136 60.519 429716.692 4414940.126 60.507 429720.334 4414936.888 60.501 429724.111 4414933.582 60.493 429727.869 4414930.248 60.477 429731.676 4414926.867 60.459 429735.423 4414923.537 60.430 429739.176 4414920.192 60.407 429743.009 4414916.883 60.376 429746.879 4414913.721 60.346 429749.723 4414911.608 60.310 429753.985 4414908.633 60.224 429758.997 4414905.473 60.155 429762.619 4414903.290 60.137 429765.546 4414901.764 60.123 429768.240 4414900.569 60.114 429771.823 4414899.185 60.108 429776.531 4414897.304 60.126 429777.453 4414896.970 60.121 429782.047 4414894.927 60.154 429786.401 4414892.605 60.134 429790.682 4414890.020 60.101 429794.501 4414887.562 60.069 429806.668 4414879.446 59.995,2,
18,429780.053 4414902.828 60.243 429784.602 4414900.747 60.248 429788.994 4414898.375 60.212 429793.291 4414895.800 60.183 429797.487 4414893.147 60.166 429801.725 4414890.442 60.130 429805.961 4414887.720 60.075 429807.542 4414886.713 60.053 429807.944 4414886.450 60.053,2,
19,429779.245 4414899.443 60.179 429783.831 4414897.415 60.196 429788.192 4414895.034 60.168 429792.513 4414892.468 60.152 429796.727 4414889.819 60.129 429800.922 4414887.110 60.088 429805.154 4414884.412 60.022 429807.330 4414883.080 60.025,2,
20,429816.114 4414858.907 59.642 429814.252 4414849.651 59.781 429813.327 4414844.733 59.885 429812.339 4414839.857 59.929 429811.913 4414837.797 59.942 429811.657 4414836.476 59.946 429810.689 4414831.563 59.953 429809.697 4414826.649 59.966 429807.868 4414817.466 59.982 429807.810 4414817.193 59.986 429806.818 4414812.316 59.997 429805.843 4414807.416 60.021 429804.855 4414802.525 60.039 429804.232 4414799.431 60.040 429803.910 4414797.881 60.044 429802.934 4414792.990 60.051 429801.932 4414788.067 59.986 429800.932 4414783.163 59.934 429799.932 4414778.271 59.874 429798.949 4414773.402 59.805 429797.974 4414768.513 59.708 429796.978 4414763.621 59.610 429795.971 4414758.749 59.510 429794.980 4414753.865 59.440 429794.156 4414749.875 59.428 429787.809 4414718.418 59.539 429786.873 4414713.569 59.579 429786.061 4414709.381 59.595 429784.205 4414700.395 59.617 429784.135 4414699.937 59.620 429782.353 4414691.115 59.632 429781.145 4414685.248 59.646 429780.182 4414680.344 59.656 429778.163 4414670.538 59.671 429774.017 4414650.015 59.686 429765.129 4414605.945 59.627 429763.212 4414596.511 59.631 429763.183 4414596.295 59.632 429762.194 4414591.373 59.623 429761.199 4414586.449 59.601 429760.194 4414581.548 59.579 429759.211 4414576.627 59.567 429758.226 4414571.711 59.555 429757.237 4414566.804 59.533 429756.243 4414561.874 59.519 429755.232 4414556.888 59.512 429754.520 4414553.379 59.504 429754.475 4414552.869 59.719,2,
21,429762.175 4414551.386 59.571 429762.218 4414551.675 59.571 429762.416 4414552.548 59.558 429764.439 4414562.364 59.613 429767.090 4414575.744 59.663 429767.371 4414577.134 59.667 429768.327 4414581.617 59.679 429769.313 4414586.565 59.780 429770.292 4414591.409 59.793 429771.310 4414596.382 59.816 429772.285 4414601.219 59.828 429773.275 4414606.170 59.751 429774.184 4414610.604 59.846 429774.207 4414610.807 59.756 429775.195 4414615.621 59.755 429776.201 4414620.529 59.859 429777.174 4414625.394 59.779 429778.173 4414630.312 59.873 429779.132 4414635.247 59.883 429780.163 4414640.123 59.884 429781.130 4414645.092 59.892 429782.086 4414649.987 59.880 429782.684 4414652.911 59.822 429784.483 4414661.731 59.888 429786.078 4414669.594 59.874 429787.683 4414677.451 59.805 429787.749 4414677.794 59.854 429787.968 4414678.964 59.771 429788.983 4414683.785 59.848 429789.943 4414688.682 59.752 429790.714 4414692.602 59.827 429791.868 4414698.328 59.727 429792.083 4414699.364 59.712 429802.387 4414750.617 59.542 429803.814 4414757.848 59.679 429804.810 4414762.715 59.779 429805.461 4414765.788 59.841 429806.276 4414769.680 59.917 429807.251 4414774.628 60.032 429808.235 4414779.521 60.101 429808.958 4414783.051 60.147 429809.894 4414787.591 60.200 429811.066 4414793.358 60.158 429812.043 4414798.220 60.222 429813.013 4414803.087 60.202 429813.555 4414805.651 60.122 429815.521 4414815.728 60.086 429816.521 4414820.627 60.062 429817.540 4414825.515 60.138 429818.456 4414830.130 60.051 429818.501 4414830.294 60.119 429819.247 4414833.807 60.009 429820.664 4414841.247 59.916 429821.664 4414846.160 59.940 429821.933 4414847.361 59.850 429823.484 4414854.643 59.850,2,
22,429819.885 4414819.745 60.026 429820.888 4414824.604 60.016 429821.756 4414829.078 60.005 429824.699 4414843.729 59.844 429825.720 4414848.622 59.791 429826.286 4414851.665 59.765 429826.387 4414852.316 59.766 429826.439 4414852.643 59.722,2,
23,429810.112 4414897.971 60.044 429805.975 4414900.763 60.044 429801.845 4414903.551 60.073 429797.719 4414906.357 60.109 429793.575 4414909.159 60.156 429789.438 4414911.969 60.199 429784.666 4414915.220 60.244 429784.490 4414915.333 60.243 429780.362 4414918.148 60.272 429776.228 4414920.967 60.294 429772.092 4414923.789 60.327 429767.970 4414926.609 60.366 429763.824 4414929.423 60.391 429759.636 4414932.263 60.413 429755.503 4414935.118 60.426 429751.372 4414937.934 60.453 429747.221 4414940.767 60.475 429743.077 4414943.579 60.483 429738.943 4414946.379 60.508 429734.802 4414949.199 60.533 429730.652 4414952.005 60.555 429726.526 4414954.802 60.564 429722.406 4414957.617 60.574 429718.291 4414960.464 60.594 429714.200 4414963.335 60.608 429710.140 4414966.278 60.619 429706.108 4414969.270 60.632 429702.158 4414972.351 60.643 429697.440 4414976.123 60.651 429697.297 4414976.288 60.646 429693.457 4414979.466 60.641 429689.655 4414982.685 60.644 429685.876 4414985.945 60.653 429682.122 4414989.257 60.663 429678.404 4414992.595 60.667 429674.735 4414995.958 60.675 429671.082 4414999.379 60.674 429667.463 4415002.826 60.669 429663.877 4415006.327 60.668 429660.338 4415009.838 60.661 429656.850 4415013.388 60.651 429653.395 4415017.006 60.638 429649.997 4415020.681 60.632 429646.652 4415024.404 60.621 429643.370 4415028.132 60.602 429640.086 4415031.928 60.591 429638.661 4415033.581 60.583,2,
24,429808.436 4414890.932 60.080 429805.965 4414892.538 60.172 429805.757 4414892.937 60.121 429805.617 4414893.357 60.113 429804.835 4414893.896 60.120 429800.692 4414896.689 60.157 429796.542 4414899.491 60.186 429792.402 4414902.297 60.215 429788.273 4414905.080 60.263 429780.908 4414910.054 60.338 429780.832 4414910.108 60.332 429776.689 4414912.911 60.356 429772.537 4414915.703 60.381 429768.383 4414918.512 60.408 429764.250 4414921.299 60.435 429760.126 4414924.086 60.478 429755.983 4414926.889 60.510 429751.855 4414929.678 60.529 429747.719 4414932.454 60.541 429743.548 4414935.264 60.557 429739.395 4414938.037 60.577 429735.252 4414940.832 60.584 429731.075 4414943.629 60.609 429726.925 4414946.403 60.635 429722.776 4414949.174 60.640 429718.611 4414951.985 60.642 429714.433 4414954.757 60.649 429710.277 4414957.560 60.657 429706.164 4414960.405 60.665 429702.092 4414963.342 60.676 429698.144 4414966.362 60.681 429694.244 4414969.429 60.687 429693.008 4414970.419 60.688 429692.994 4414970.493 60.686 429689.137 4414973.671 60.687 429685.315 4414976.884 60.696 429681.518 4414980.163 60.708 429677.771 4414983.452 60.718 429674.052 4414986.786 60.734 429670.372 4414990.147 60.739 429666.703 4414993.558 60.737 429663.071 4414997.017 60.732 429659.489 4415000.503 60.741 429655.936 4415004.029 60.740 429652.417 4415007.589 60.734 429648.926 4415011.176 60.722 429645.534 4415014.819 60.722 429642.185 4415018.522 60.717 429638.887 4415022.281 60.704 429635.623 4415026.064 60.692 429632.385 4415029.851 60.677 429629.181 4415033.682 60.662 429625.969 4415037.500 60.650 429620.791 4415043.747 60.625 429617.630 4415047.616 60.613 429614.487 4415051.512 60.597 429611.417 4415055.428 60.582 429608.282 4415059.506 60.572 429608.190 4415059.714 60.571,2,
25,429602.676 4415067.097 60.534 429599.796 4415071.183 60.537 429596.966 4415075.301 60.525 429594.168 4415079.459 60.502 429591.412 4415083.606 60.487 429588.692 4415087.783 60.481 429586.010 4415092.013 60.462 429583.298 4415096.417 60.449 429580.727 4415100.718 60.433 429578.175 4415105.031 60.417 429575.678 4415109.371 60.398 429573.202 4415113.691 60.376 429570.820 4415118.080 60.358 429568.470 4415122.509 60.334 429564.005 4415131.073 60.304 429564.009 4415131.133 60.312 429561.766 4415135.617 60.306 429559.569 4415140.111 60.292 429557.409 4415144.632 60.272 429555.327 4415149.168 60.257 429553.273 4415153.719 60.242 429551.179 4415158.523 60.225 429549.200 4415163.085 60.202 429547.256 4415167.699 60.181 429545.315 4415172.284 60.171 429543.392 4415176.895 60.157 429541.469 4415181.501 60.145 429539.554 4415186.113 60.124 429538.209 4415189.471 60.117 429536.375 4415193.741 60.116 429534.465 4415198.341 60.115 429532.550 4415202.976 60.110 429530.646 4415207.604 60.082 429528.711 4415212.223 60.069 429527.833 4415214.302 60.061 429527.770 4415214.483 60.060 429525.837 4415219.102 60.046 429523.915 4415223.720 60.056 429522.006 4415228.329 60.076 429520.076 4415232.946 60.076 429518.140 4415237.557 60.068 429516.192 4415242.142 60.058 429514.204 4415246.731 60.049 429512.160 4415251.309 60.023 429510.073 4415255.829 59.992 429509.262 4415257.497 59.986 429507.229 4415261.712 59.976 429504.975 4415266.172 59.990 429502.645 4415270.583 60.001 429500.229 4415274.963 60.032 429497.735 4415279.296 60.047 429495.176 4415283.589 60.059 429492.519 4415287.813 60.069 429489.791 4415292.012 60.072 429487.010 4415296.147 60.063 429484.161 4415300.262 60.072 429479.839 4415306.349 60.087 429479.723 4415306.422 60.085 429476.710 4415310.416 60.107 429473.626 4415314.371 60.131 429470.484 4415318.262 60.143 429467.275 4415322.070 60.155 429463.992 4415325.842 60.170 429462.998 4415327.003 60.171 429459.931 4415330.318 60.185 429456.512 4415333.954 60.203 429453.024 4415337.542 60.227 429449.474 4415341.086 60.237 429445.880 4415344.549 60.247 429442.254 4415348.001 60.263 429438.598 4415351.407 60.286 429434.988 4415354.768 60.304 429431.323 4415358.148 60.322 429427.650 4415361.536 60.329 429421.549 4415367.110 60.350 429421.518 4415367.139 60.358 429417.861 4415370.555 60.384 429414.180 4415373.936 60.401 429410.506 4415377.326 60.422 429406.843 4415380.689 60.435 429403.170 4415384.081 60.452 429399.477 4415387.480 60.485 429395.803 4415390.840 60.501 429392.121 4415394.238 60.512 429388.446 4415397.623 60.534 429384.768 4415401.018 60.554 429381.084 4415404.406 60.574 429377.399 4415407.806 60.579 429373.716 4415411.200 60.614 429370.024 4415414.591 60.640 429366.354 4415417.975 60.657 429362.673 4415421.376 60.671 429358.064 4415425.621 60.684 429357.988 4415425.698 60.683 429354.321 4415429.082 60.702 429350.634 4415432.452 60.705 429346.932 4415435.849 60.741 429343.063 4415439.351 60.773 429339.406 4415442.782 60.780 429335.722 4415446.142 60.799 429332.047 4415449.547 60.809 429328.380 4415452.933 60.846 429324.706 4415456.323 60.882 429321.007 4415459.733 60.908 429317.300 4415463.143 60.921 429313.631 4415466.541 60.911 429309.950 4415469.923 60.948 429302.851 4415476.431 60.977 429302.808 4415476.500 60.977 429299.137 4415479.886 60.988 429295.466 4415483.268 61.002 429291.786 4415486.648 61.049 429288.121 4415490.033 61.062 429286.574 4415491.318 61.068,2,
26,429607.911 4415072.170 60.444 429605.030 4415076.280 60.444 429602.208 4415080.411 60.434 429599.412 4415084.551 60.411 429596.656 4415088.725 60.395 429593.960 4415092.935 60.376 429591.308 4415097.184 60.357 429588.699 4415101.449 60.336 429586.134 4415105.725 60.319 429583.608 4415110.036 60.303 429581.140 4415114.368 60.291 429578.701 4415118.750 60.271 429576.296 4415123.159 60.252 429573.957 4415127.570 60.236 429571.648 4415131.997 60.226 429570.480 4415134.279 60.221 429570.416 4415134.451 60.223 429568.191 4415138.912 60.212 429566.000 4415143.399 60.193 429563.845 4415147.919 60.172 429561.763 4415152.454 60.155 429559.715 4415157.006 60.143 429557.709 4415161.575 60.133 429555.739 4415166.144 60.124 429553.785 4415170.749 60.118 429551.852 4415175.381 60.107 429549.910 4415180.006 60.095 429547.976 4415184.648 60.079 429546.070 4415189.242 60.054 429544.154 4415193.860 60.028 429542.245 4415198.465 60.013 429540.316 4415203.102 60.009 429538.400 4415207.705 60.005 429536.480 4415212.324 60.001 429534.590 4415216.866 60.006 429534.435 4415217.224 60.006 429532.517 4415221.832 59.994 429530.603 4415226.434 59.996 429528.698 4415231.047 60.010 429526.773 4415235.654 60.020 429524.812 4415240.293 60.007 429522.849 4415244.865 60.000 429520.864 4415249.442 59.988 429518.801 4415254.012 59.969 429516.706 4415258.565 59.940 429514.546 4415263.081 59.922 429512.333 4415267.544 59.919 429510.022 4415271.996 59.930 429507.654 4415276.409 59.958 429505.209 4415280.746 59.976 429502.677 4415285.071 59.988 429500.063 4415289.330 60.002 429497.386 4415293.548 60.007 429494.645 4415297.718 60.009 429491.879 4415301.799 60.003 429489.013 4415305.888 60.007 429485.564 4415310.709 60.014 429485.500 4415310.724 60.016 429482.491 4415314.705 60.027 429479.422 4415318.639 60.034 429476.271 4415322.523 60.054 429473.066 4415326.354 60.076 429469.787 4415330.131 60.100 429466.437 4415333.855 60.107 429463.031 4415337.523 60.118 429459.586 4415341.112 60.143 429456.060 4415344.663 60.158 429452.482 4415348.170 60.162 429448.899 4415351.624 60.169 429445.261 4415355.051 60.189 429441.611 4415358.460 60.208 429437.937 4415361.865 60.229 429434.258 4415365.252 60.248 429430.575 4415368.634 60.267 429429.017 4415369.984 60.284,2,
27,429311.893 4415476.321 60.876 429304.498 4415483.129 60.903 429300.862 4415486.501 60.929 429297.194 4415489.831 60.966 429293.488 4415493.266 60.999 429289.795 4415496.680 61.013 429286.604 4415499.558 61.019 429286.353 4415499.750 61.012,2,
28,429309.829 4415474.164 60.912 429302.407 4415480.983 60.928 429298.723 4415484.379 60.953 429295.111 4415487.699 60.991 429291.449 4415491.067 61.014 429287.774 4415494.466 61.030 429285.490 4415496.595 61.042 429285.213 4415496.872 61.040,2,
29,429235.804 4415386.192 60.999 429234.819 4415381.296 61.020 429233.839 4415376.406 61.054 429232.852 4415371.496 61.064 429231.864 4415366.605 61.066 429230.878 4415361.702 61.079 429229.896 4415356.818 61.098 429228.913 4415351.929 61.104 429227.914 4415347.040 61.136 429226.937 4415342.148 61.138 429225.950 4415337.239 61.166 429224.959 4415332.331 61.179 429223.973 4415327.439 61.194 429222.973 4415322.527 61.206 429221.990 4415317.624 61.218 429221.002 4415312.732 61.225 429220.011 4415307.831 61.256 429219.593 4415305.807 61.252,2,
30,429250.140 4415496.676 61.058 429250.135 4415493.001 61.027 429247.377 4415478.998 60.936 429246.306 4415474.126 60.924 429245.327 4415469.030 60.908 429245.189 4415468.454 60.904 429244.183 4415463.533 60.894 429243.168 4415458.606 60.881 429242.177 4415453.746 60.874 429241.176 4415448.849 60.865 429240.212 4415443.992 60.860 429239.227 4415439.101 60.853 429238.230 4415434.200 60.847 429237.247 4415429.314 60.835 429236.256 4415424.400 60.839 429235.261 4415419.492 60.850 429234.264 4415414.584 60.851 429233.270 4415409.644 60.848 429232.284 4415404.739 60.873 429231.278 4415399.850 60.884 429230.283 4415394.909 60.893 429229.285 4415390.017 60.904 429227.974 4415383.436 60.917 429227.938 4415383.306 60.924 429226.960 4415378.448 60.945 429225.994 4415373.550 60.961 429224.999 4415368.667 60.976 429223.996 4415363.712 60.998 429223.007 4415358.817 61.014 429222.012 4415353.895 61.038 429220.996 4415348.975 61.046 429220.040 4415344.106 61.065 429219.047 4415339.186 61.078 429218.096 4415334.391 61.093 429217.091 4415329.475 61.107 429216.094 4415324.581 61.120 429215.107 4415319.671 61.138 429214.132 4415314.783 61.155 429212.351 4415305.974 61.165 429212.231 4415305.312 61.163 429211.236 4415300.399 61.177 429210.232 4415295.479 61.196 429209.948 4415294.308 61.200 429209.549 4415292.128 61.212 429206.213 4415275.540 61.262 429205.193 4415270.649 61.278 429204.207 4415265.786 61.294 429203.230 4415260.907 61.318 429202.229 4415255.974 61.337 429201.233 4415251.099 61.354 429200.241 4415246.206 61.369 429199.276 4415241.317 61.381 429198.281 4415236.419 61.402 429197.269 4415231.414 61.424 429197.085 4415230.627 61.428 429197.059 4415230.309 61.431 429196.090 4415225.526 61.450 429195.064 4415220.573 61.474 429194.047 4415215.692 61.499 429192.976 4415210.808 61.517 429191.842 4415205.963 61.548 429190.480 4415201.080 61.577 429189.013 4415196.302 61.588 429187.423 4415191.557 61.610 429185.732 4415186.843 61.649 429183.883 4415182.200 61.672 429182.519 4415179.019 61.688,2,
31,429218.354 4415299.659 61.243 429217.372 4415294.750 61.258 429216.377 4415289.848 61.291 429215.548 4415285.724 61.305,2,
32,429213.109 4415273.695 61.347 429212.115 4415268.798 61.363 429211.126 4415263.910 61.368 429210.986 4415263.254 61.370,2,
33,429168.555 4415145.987 61.887 429165.727 4415141.853 61.925 429162.794 4415137.820 61.952 429159.766 4415133.878 61.981 429156.696 4415130.061 62.013 429153.476 4415126.240 62.029 429152.497 4415125.129 62.034 429152.048 4415124.628 62.047,2,
34,429130.961 4415099.107 62.256 429126.211 4415095.404 62.303 429125.985 4415095.571 62.290 429125.883 4415095.562 62.289 429123.061 4415093.612 62.307 429118.982 4415090.701 62.338 429117.219 4415089.494 62.347 429114.812 4415087.879 62.358 429113.046 4415086.740 62.369 429110.554 4415085.167 62.387 429106.217 4415082.576 62.413 429101.903 4415080.140 62.425 429097.534 4415077.842 62.451 429093.032 4415075.579 62.482 429088.519 4415073.316 62.516 429084.092 4415071.105 62.564 429079.634 4415068.874 62.599 429075.138 4415066.617 62.638 429070.727 4415064.368 62.671 429066.350 4415062.201 62.686 429061.870 4415059.965 62.715 429057.473 4415057.689 62.743 429057.151 4415057.543 62.753 429052.654 4415055.359 62.772 429048.205 4415053.142 62.811 429043.838 4415050.756 62.810,2,
35,429069.363 4415070.412 62.569 429064.914 4415068.173 62.594 429045.312 4415058.373 62.732 429040.844 4415056.136 62.753 429036.421 4415053.916 62.746 429035.248 4415053.320 62.749 429034.615 4415053.011 62.748 429034.378 4415052.892 62.758,2,
36,429037.678 4415046.873 62.858 429037.980 4415046.999 62.785 429043.938 4415050.099 62.819 429044.664 4415049.900 62.814 429049.472 4415052.284 62.813 429049.759 4415052.419 62.802 429056.037 4415055.581 62.761 429060.552 4415057.838 62.725 429065.021 4415060.080 62.697 429069.456 4415062.299 62.673 429073.918 4415064.542 62.643 429078.387 4415066.796 62.606 429082.851 4415069.031 62.586 429087.302 4415071.259 62.528 429091.784 4415073.503 62.498 429096.247 4415075.722 62.466 429100.650 4415078.038 62.433 429105.052 4415080.419 62.424 429105.536 4415080.691 62.394 429109.836 4415083.249 62.396 429114.075 4415085.905 62.367 429118.262 4415088.667 62.345 429122.376 4415091.502 62.319 429126.465 4415094.588 62.284,2,
37,429017.303 4415016.385 62.744 429019.338 4415011.840 62.716 429021.360 4415007.275 62.697 429023.359 4415002.694 62.672 429025.264 4414998.079 62.651 429027.085 4414993.440 62.633 429028.833 4414988.751 62.609 429030.504 4414984.023 62.586 429032.386 4414978.533 62.557 429032.450 4414978.194 62.553 429033.955 4414973.434 62.533 429035.386 4414968.643 62.507 429036.768 4414963.854 62.490 429038.047 4414959.036 62.463 429039.240 4414954.198 62.435 429040.364 4414949.364 62.407 429041.436 4414944.474 62.382 429042.423 4414939.568 62.361 429043.332 4414934.658 62.338 429044.142 4414929.793 62.310 429044.875 4414924.870 62.291 429045.558 4414919.899 62.270 429046.191 4414914.947 62.247 429046.244 4414914.337 62.240 429046.763 4414909.404 62.219 429047.249 4414904.397 62.193 429047.708 4414899.412 62.168 429048.134 4414894.433 62.155 429048.571 4414889.411 62.128 429049.031 4414884.426 62.109 429049.452 4414879.457 62.090 429049.902 4414874.491 62.072 429050.383 4414869.493 62.057 429050.900 4414864.516 62.031 429051.472 4414859.559 61.996 429052.097 4414854.607 61.982 429052.844 4414849.651 61.961 429053.750 4414844.739 61.942 429054.699 4414839.870 61.920 429054.759 4414839.800 61.915 429055.830 4414834.917 61.895 429056.979 4414830.049 61.875 429058.264 4414825.200 61.856 429059.669 4414820.408 61.840 429061.173 4414815.619 61.826 429062.745 4414810.858 61.802 429064.447 4414806.155 61.781 429066.294 4414801.494 61.751 429068.251 4414796.892 61.724 429070.281 4414792.328 61.693 429072.386 4414787.807 61.668 429074.521 4414783.288 61.642 429076.749 4414778.800 61.620 429079.005 4414774.342 61.601 429081.181 4414770.121 61.583 429081.253 4414770.040 61.581 429083.636 4414765.650 61.559 429086.227 4414761.370 61.539 429088.980 4414757.187 61.521 429091.720 4414753.037 61.502 429094.491 4414748.901 61.482 429097.285 4414744.740 61.458 429100.071 4414740.610 61.435 429102.871 4414736.461 61.416 429105.668 4414732.313 61.392 429108.478 4414728.149 61.367 429111.281 4414723.995 61.335 429114.085 4414719.852 61.310 429116.886 4414715.714 61.285 429119.680 4414711.556 61.257 429122.553 4414707.281 61.226 429122.913 4414706.752 61.226 429125.707 4414702.617 61.208 429128.508 4414698.483 61.181 429131.309 4414694.337 61.152 429134.079 4414690.225 61.133 429136.915 4414686.069 61.111 429139.716 4414681.923 61.087 429142.515 4414677.787 61.058 429145.328 4414673.599 61.026 429148.128 4414669.433 60.996 429151.032 4414665.152 60.996 429153.830 4414660.981 60.981 429156.626 4414656.835 60.965 429159.429 4414652.713 60.939 429164.474 4414645.258 60.895 429164.658 4414644.988 60.897 429167.444 4414640.846 60.874 429170.255 4414636.705 60.856 429173.064 4414632.547 60.834 429175.869 4414628.402 60.807 429178.661 4414624.260 60.781 429181.480 4414620.103 60.754 429184.279 4414615.955 60.729 429187.078 4414611.813 60.708 429189.878 4414607.663 60.689 429192.668 4414603.532 60.663 429195.469 4414599.384 60.635 429198.256 4414595.240 60.611 429201.061 4414591.071 60.591 429204.960 4414585.276 60.559 429205.155 4414584.983 60.559 429207.933 4414580.883 60.538 429210.732 4414576.732 60.508 429213.529 4414572.600 60.478 429216.325 4414568.475 60.471 429219.140 4414564.336 60.458 429221.932 4414560.198 60.437 429224.705 4414556.102 60.418 429227.498 4414551.967 60.394 429230.294 4414547.842 60.372 429233.102 4414543.682 60.352 429235.916 4414539.523 60.322 429238.694 4414535.404 60.296 429241.490 4414531.251 60.270 429245.110 4414525.855 60.236 429245.399 4414525.452 60.236 429248.174 4414521.329 60.211 429250.966 4414517.211 60.189 429253.783 4414513.081 60.167 429256.642 4414508.959 60.146 429259.563 4414504.904 60.123 429262.550 4414500.885 60.099 429265.629 4414496.925 60.070 429268.799 4414493.067 60.043 429272.061 4414489.261 60.011 429275.385 4414485.537 60.004 429278.752 4414481.846 59.987 429281.369 4414479.120 59.969 429281.530 4414478.966 59.969 429285.040 4414475.428 59.951 429288.607 4414471.952 59.929 429292.261 4414468.507 59.905 429295.970 4414465.139 59.886 429299.718 4414461.847 59.858 429303.541 4414458.627 59.834 429307.456 4414455.503 59.812 429311.441 4414452.465 59.796 429315.465 4414449.493 59.777 429319.541 4414446.567 59.750 429323.666 4414443.754 59.715 429327.836 4414440.999 59.684 429332.075 4414438.335 59.667 429336.404 4414435.753 59.648 429340.997 4414433.103 59.629 429345.357 4414430.654 59.595 429349.789 4414428.323 59.579 429354.273 4414426.069 59.566 429358.800 4414423.909 59.551 429363.372 4414421.882 59.525 429367.926 4414419.990 59.498 429372.589 4414418.095 59.477 429377.256 4414416.302 59.454 429381.960 4414414.600 59.435 429386.710 4414413.034 59.430 429391.485 4414411.495 59.412 429393.261 4414410.942 59.404 429393.501 4414410.888 59.388 429398.265 4414409.473 59.345 429403.100 4414408.098 59.315 429406.683 4414407.089 59.308,2,
38,429382.811 4414418.090 59.520 429385.889 4414417.006 59.494 429390.850 4414415.435 59.472 429395.508 4414414.040 59.428 429400.302 4414412.600 59.383 429405.130 4414411.198 59.357 429405.940 4414410.928 59.355 429406.417 4414410.815 59.350,2,
39,429703.338 4414358.133 58.376 429701.102 4414358.609 58.328 429699.215 4414359.042 58.281 429694.285 4414359.992 58.266 429686.468 4414361.587 58.202 429676.668 4414363.578 58.160 429665.886 4414365.754 58.190 429661.961 4414366.525 58.211 429658.042 4414367.329 58.235 429650.452 4414368.853 58.276 429641.547 4414370.660 58.324 429641.455 4414370.674 58.330 429636.532 4414371.685 58.357 429633.659 4414372.256 58.373 429630.038 4414372.979 58.391 429625.233 4414373.958 58.412 429621.774 4414374.646 58.434 429597.407 4414379.606 58.613 429592.154 4414380.564 58.611 429588.004 4414381.413 58.622 429585.062 4414381.996 58.641 429583.171 4414382.388 58.646 429580.621 4414382.957 58.639 429577.566 4414383.572 58.655 429569.537 4414385.189 58.697 429564.629 4414386.177 58.720 429559.728 4414387.158 58.743 429554.840 4414388.150 58.768 429549.946 4414389.135 58.794 429545.828 4414389.969 58.809 429493.834 4414400.460 59.049 429463.053 4414406.672 59.187 429455.805 4414408.117 59.203 429435.728 4414412.274 59.288 429435.334 4414412.345 59.286,2,
40,429435.693 4414408.385 59.309 429435.928 4414408.351 59.309 429465.979 4414402.273 59.179 429470.877 4414401.274 59.146 429473.412 4414400.757 59.131 429480.171 4414399.461 59.131 429484.570 4414398.502 59.083 429489.471 4414397.512 59.065 429490.414 4414397.323 59.061 429503.098 4414394.753 59.013 429506.627 4414394.041 58.997 429536.862 4414387.940 58.857 429541.742 4414386.954 58.833 429546.642 4414385.972 58.810 429549.841 4414385.320 58.797 429555.677 4414384.170 58.779 429560.584 4414383.155 58.749 429565.476 4414382.173 58.723 429569.965 4414381.265 58.659 429620.180 4414371.167 58.466 429625.033 4414370.213 58.451 429629.817 4414369.169 58.406 429634.762 4414368.268 58.369 429638.783 4414367.490 58.337 429639.899 4414368.117 58.338 429643.612 4414368.113 58.322 429648.528 4414367.998 58.298 429653.486 4414367.392 58.268 429657.417 4414366.655 58.244 429661.835 4414365.776 58.216 429666.697 4414364.777 58.191 429671.618 4414363.790 58.173 429676.540 4414362.797 58.164 429681.464 4414361.791 58.184 429686.350 4414360.807 58.198 429691.248 4414359.807 58.246 429696.104 4414358.815 58.273 429700.984 4414357.824 58.323 429703.188 4414357.377 58.366,2,
41,429662.953 4414358.320 58.149 429667.848 4414357.409 58.130 429672.759 4414356.412 58.117 429677.699 4414355.410 58.114 429682.612 4414354.417 58.156 429687.524 4414353.425 58.188 429692.432 4414352.430 58.231 429697.332 4414351.424 58.266 429701.827 4414350.534 58.283,2,
42,429663.819 4414361.786 58.192 429668.705 4414360.794 58.170 429673.628 4414359.805 58.165 429678.530 4414358.799 58.159 429683.453 4414357.804 58.183 429688.370 4414356.799 58.213 429693.273 4414355.802 58.241 429698.192 4414354.800 58.285 429702.509 4414353.962 58.325,2,
43,429752.920 4414510.193 59.483 429752.824 4414510.092 59.338 429751.219 4414502.218 59.302 429750.185 4414497.215 59.288 429749.222 4414492.294 59.249 429748.217 4414487.480 59.209 429747.226 4414482.536 59.189 429746.270 4414477.621 59.169 429745.282 4414472.742 59.130 429744.233 4414467.741 59.105 429743.302 4414462.826 59.079 429742.408 4414457.879 59.048 429741.787 4414453.009 59.019 429741.171 4414445.085 58.959 429741.218 4414444.082 58.962 429740.949 4414439.115 58.939 429740.521 4414434.098 58.915 429740.096 4414429.117 58.887 429739.246 4414424.210 58.854 429738.903 4414423.506 58.852 429738.246 4414419.321 58.818 429737.437 4414414.394 58.776 429736.205 4414409.522 58.750 429735.279 4414404.614 58.722 429734.281 4414399.694 58.691 429733.277 4414394.834 58.668 429732.274 4414389.887 58.629 429731.190 4414385.005 58.606 429729.709 4414377.531 58.589 429729.678 4414377.393 58.598,2,
44,429730.497 4414377.225 58.579 429730.560 4414377.382 58.579 429733.062 4414390.117 58.620 429734.065 4414395.005 58.655 429735.057 4414399.880 58.677 429736.024 4414404.789 58.707 429737.024 4414409.691 58.736 429738.048 4414414.561 58.769 429738.970 4414419.468 58.807 429739.845 4414423.648 58.835 429739.961 4414423.881 58.830 429740.751 4414428.821 58.871 429741.262 4414433.813 58.897 429741.614 4414438.777 58.927 429741.924 4414443.772 58.955 429742.192 4414448.764 58.982 429742.657 4414453.718 59.023 429743.406 4414458.485 59.054 429744.193 4414462.417 59.076 429745.131 4414467.338 59.102 429746.112 4414472.227 59.123 429746.606 4414474.521 59.136 429753.802 4414509.735 59.334 429753.875 4414509.977 59.453,2,
45,429745.015 4414471.499 59.120 429746.023 4414476.380 59.155 429746.576 4414479.485 59.173,2,
46,429822.846 4414855.074 59.775 429822.731 4414854.704 59.782 429821.270 4414847.836 59.850 429821.018 4414847.603 59.872 429820.610 4414845.645 59.876 429819.996 4414842.696 59.911 429819.026 4414837.813 59.965 429818.117 4414833.299 60.026 429817.583 4414830.496 60.047 429817.532 4414830.315 60.054 429815.636 4414820.818 60.068 429814.843 4414816.847 60.083 429813.587 4414810.767 60.130 429812.049 4414803.081 60.124 429810.416 4414795.008 60.160 429810.146 4414793.633 60.173 429809.140 4414788.775 60.143 429808.547 4414785.834 60.120 429806.562 4414776.034 59.968 429805.187 4414769.200 59.844 429803.207 4414759.401 59.636 429801.657 4414751.764 59.540 429800.657 4414746.856 59.521 429791.137 4414699.250 59.710 429791.119 4414698.991 59.708 429789.917 4414693.055 59.723 429788.866 4414688.166 59.734 429787.945 4414683.685 59.741 429786.899 4414678.363 59.758 429785.792 4414672.466 59.771 429783.804 4414662.667 59.794 429782.037 4414653.842 59.799 429781.026 4414648.945 59.799 429780.189 4414645.033 59.795 429778.229 4414635.226 59.784 429777.215 4414630.331 59.774 429775.289 4414620.517 59.760 429774.280 4414615.621 59.747 429772.312 4414605.818 59.738 429771.739 4414602.870 59.732 429770.719 4414597.977 59.724 429768.963 4414589.150 59.700 429768.104 4414585.022 59.688 429767.111 4414580.110 59.664 429765.529 4414572.500 59.646 429764.356 4414566.616 59.617 429763.360 4414561.716 59.610 429762.099 4414555.809 59.595 429761.752 4414554.086 59.589 429761.306 4414551.933 59.559 429761.240 4414551.566 59.599,2,
47,429747.867 4414462.847 59.057 429748.390 4414465.662 59.066 429757.199 4414508.989 59.308 429757.295 4414509.203 59.347,2,
48,429769.019 4414550.280 59.505 429788.961 4414648.806 59.694 429790.022 4414653.690 59.689 429790.965 4414658.620 59.685 429791.313 4414659.949 59.681 429798.595 4414696.713 59.657 429805.691 4414731.483 59.522 429812.138 4414763.584 59.715 429813.077 4414768.461 59.806 429814.079 4414773.358 59.899 429815.070 4414778.231 59.993 429816.054 4414783.152 60.066 429817.045 4414788.040 60.087 429817.146 4414788.514 60.082 429817.379 4414789.667 60.081 429818.381 4414794.565 60.065 429819.371 4414799.456 60.050 429820.335 4414804.277 60.034 429821.337 4414809.178 60.020 429822.309 4414814.064 60.002 429823.291 4414819.001 59.987 429824.282 4414823.923 59.974 429824.812 4414826.771 59.961 429828.205 4414843.427 59.805 429829.188 4414845.712 59.780 429830.960 4414848.867 59.731 429831.254 4414849.384 59.652,2,
49,429737.384 4414375.786 58.502 429747.252 4414425.518 58.751 429748.316 4414429.972 58.783 429748.880 4414438.905 58.864 429749.458 4414448.892 58.919 429749.923 4414453.846 58.960 429750.672 4414458.613 58.991 429751.498 4414462.482 59.013 429760.773 4414508.374 59.217 429760.773 4414508.415 59.239,2,
50,429434.610 4414400.787 59.278 429436.511 4414400.782 59.358 429438.627 4414400.611 59.200 429443.528 4414399.650 59.165 429448.418 4414398.655 59.149 429453.329 4414397.650 59.147 429461.939 4414395.899 59.097 429462.067 4414395.875 59.093 429466.957 4414394.873 59.059 429471.853 4414393.887 59.031 429476.755 4414392.891 59.009 429481.667 4414391.884 58.991 429486.535 4414390.904 58.972 429491.426 4414389.920 58.953 429496.324 4414388.919 58.931 429501.239 4414387.931 58.905 429506.176 4414386.934 58.884 429511.061 4414385.935 58.867 429515.967 4414384.962 58.843 429520.877 4414383.978 58.821 429526.959 4414382.766 58.793 429527.478 4414382.649 58.790 429532.390 4414381.651 58.767 429537.296 4414380.661 58.748 429542.184 4414379.678 58.729 429547.088 4414378.692 58.703 429551.975 4414377.705 58.676 429556.878 4414376.714 58.652 429561.764 4414375.717 58.631 429566.675 4414374.731 58.606 429571.515 4414373.758 58.584 429576.431 4414372.784 58.558 429581.342 4414371.793 58.529 429586.241 4414370.785 58.502 429591.148 4414369.790 58.476 429597.022 4414368.609 58.448 429597.522 4414368.507 58.449 429602.429 4414367.516 58.420 429607.309 4414366.519 58.395 429612.208 4414365.525 58.359 429617.092 4414364.548 58.326 429621.973 4414363.549 58.308 429626.865 4414362.563 58.290 429629.238 4414361.927 58.289 429632.317 4414360.589 58.256 429641.098 4414356.773 58.229 429648.595 4414354.188 58.154 429698.715 4414343.877 58.232 429700.092 4414343.238 58.206 429700.350 4414343.105 58.192,2,
51,429662.604 4414354.912 58.139 429700.780 4414347.065 58.266 429701.122 4414346.987 58.239,2,
52,429047.584 4414986.258 62.644 429041.682 4415002.693 62.700 429033.355 4415022.591 62.772 429033.210 4415022.913 62.754,2,
53,429405.874 4414418.427 59.436 429405.832 4414418.426 59.444 429386.564 4414424.482 59.561 429381.868 4414426.171 59.569 429377.198 4414427.934 59.588 429373.818 4414429.306 59.604 429363.296 4414433.783 59.700 429361.312 4414434.809 59.665 429358.949 4414435.935 59.679 429350.715 4414440.231 59.724 429338.910 4414446.789 59.780 429328.506 4414453.576 59.833 429324.177 4414456.593 59.858 429321.826 4414458.279 59.870 429317.811 4414461.245 59.904 429313.871 4414464.297 59.929 429309.986 4414467.433 59.929 429306.175 4414470.644 59.970 429302.401 4414473.946 59.998 429298.714 4414477.333 60.020 429295.072 4414480.785 60.045 429291.706 4414484.046 60.061 429287.247 4414488.637 60.092 429284.523 4414491.566 60.113 429281.555 4414494.875 60.128 429278.346 4414498.647 60.146 429275.164 4414502.498 60.177 429272.052 4414506.414 60.199 429269.019 4414510.405 60.224 429266.054 4414514.456 60.233 429263.172 4414518.522 60.258 429260.257 4414522.758 60.282 429257.789 4414526.323 60.335 429254.976 4414530.457 60.375 429252.195 4414534.570 60.407 429250.126 4414537.800 60.381 429245.463 4414544.656 60.448 429244.784 4414545.648 60.457 429243.896 4414547.002 60.454 429240.747 4414551.612 60.495 429238.009 4414555.703 60.508 429235.259 4414559.885 60.512 429232.473 4414564.005 60.541 429229.674 4414568.158 60.547 429226.870 4414572.311 60.562 429224.071 4414576.445 60.581 429221.272 4414580.592 60.597 429218.475 4414584.733 60.619 429215.664 4414588.890 60.635 429212.849 4414593.022 60.661 429210.067 4414597.150 60.694 429207.271 4414601.280 60.720 429205.229 4414604.306 60.741 429202.807 4414607.902 60.762 429202.100 4414608.961 60.768 429199.499 4414612.809 60.776 429177.956 4414644.619 60.928 429175.173 4414648.780 60.991 429174.455 4414649.860 60.996 429166.956 4414660.982 61.046 429164.129 4414665.119 61.071 429161.335 4414669.294 61.098 429159.662 4414671.784 61.100 429136.104 4414706.617 61.304 429124.588 4414723.478 61.429 429121.815 4414727.597 61.457 429114.706 4414738.137 61.539 429111.926 4414742.228 61.563 429109.129 4414746.333 61.585 429107.367 4414749.137 61.554 429101.991 4414757.064 61.582 429097.301 4414764.038 61.663 429094.671 4414768.202 61.674 429092.208 4414772.557 61.658 429089.844 4414776.959 61.691 429086.916 4414782.599 61.735 429086.931 4414782.639 61.733 429084.718 4414787.114 61.763 429082.579 4414791.629 61.788 429080.493 4414796.163 61.799 429078.452 4414800.747 61.815 429076.470 4414805.335 61.850 429074.661 4414810.003 61.894 429074.207 4414811.231 61.898 429072.456 4414816.109 61.913 429070.895 4414820.786 61.947 429069.479 4414825.499 61.981 429068.148 4414830.250 62.011 429066.928 4414835.044 62.024 429065.823 4414839.876 62.031 429064.784 4414844.697 62.061 429063.860 4414849.639 62.093 429063.130 4414854.334 62.103 429062.447 4414859.215 62.122 429061.903 4414864.043 62.139 429057.249 4414913.638 62.354 429054.909 4414930.620 62.447 429054.087 4414935.490 62.489 429053.274 4414940.342 62.483 429052.342 4414945.174 62.516 429051.340 4414949.998 62.539 429050.271 4414954.876 62.540 429049.092 4414959.735 62.553 429047.822 4414964.582 62.589 429046.512 4414969.384 62.607 429045.423 4414973.144 62.617 429045.342 4414973.565 62.617 429043.812 4414978.313 62.638 429042.295 4414983.029 62.666 429040.692 4414987.761 62.699 429039.050 4414992.465 62.722 429037.618 4414996.581 62.731 429034.370 4415004.530 62.809 429027.777 4415019.862 62.836 429027.727 4415019.983 62.803,2,
54,429024.327 4415018.165 62.808 429025.871 4415014.988 62.808 429027.767 4415010.343 62.780 429029.729 4415005.747 62.765 429031.624 4415001.128 62.745 429033.467 4414996.470 62.721 429035.226 4414991.777 62.691 429036.898 4414987.090 62.674 429039.143 4414980.581 62.639 429039.112 4414980.513 62.641 429040.614 4414975.782 62.621 429042.058 4414971.003 62.600 429043.441 4414966.196 62.592 429044.723 4414961.358 62.572 429045.965 4414956.495 62.550 429047.110 4414951.638 62.518 429048.196 4414946.740 62.484 429049.178 4414941.832 62.448 429050.080 4414936.920 62.424 429050.936 4414931.993 62.407 429051.308 4414929.689 62.396 429051.977 4414925.133 62.385 429052.644 4414920.174 62.376 429053.273 4414915.228 62.365 429053.222 4414915.206 62.362 429053.355 4414913.981 62.357 429053.863 4414909.086 62.330 429054.349 4414904.087 62.312 429054.802 4414899.107 62.284 429055.251 4414894.116 62.263 429055.696 4414889.120 62.235 429056.005 4414885.592 62.224 429058.582 4414859.165 62.134 429059.701 4414852.161 62.093 429060.567 4414847.304 62.067 429061.509 4414842.488 62.052 429061.736 4414841.420 62.053 429061.798 4414841.257 62.060 429062.808 4414836.446 62.041 429063.941 4414831.640 62.009 429065.221 4414826.888 61.976 429066.547 4414822.114 61.931 429068.014 4414817.328 61.911 429068.559 4414815.658 61.904 429072.433 4414805.152 61.853 429074.373 4414800.557 61.832 429076.357 4414795.972 61.800 429078.392 4414791.423 61.796 429080.501 4414786.911 61.777 429082.675 4414782.417 61.745 429084.909 4414777.927 61.726 429087.202 4414773.451 61.699 429087.321 4414773.344 61.691 429089.788 4414768.989 61.672 429092.430 4414764.749 61.653 429095.184 4414760.564 61.631 429095.712 4414759.761 61.627 429099.353 4414754.525 61.647 429102.069 4414750.414 61.612 429104.846 4414746.329 61.598 429107.318 4414742.469 61.526 429113.712 4414733.024 61.493 429131.538 4414706.813 61.375 429134.226 4414702.613 61.301 429137.034 4414698.586 61.321 429139.819 4414694.428 61.281 429140.595 4414693.173 61.252 429152.631 4414675.488 61.136 429155.444 4414671.425 61.145 429158.193 4414667.305 61.138 429160.983 4414663.185 61.120 429163.751 4414659.076 61.104 429175.328 4414641.968 60.930 429178.074 4414637.881 60.948 429179.018 4414636.349 60.923 429207.429 4414594.621 60.891 429212.848 4414586.226 60.646 429215.652 4414582.089 60.624 429218.445 4414577.931 60.609 429221.244 4414573.789 60.592 429224.043 4414569.663 60.574 429226.856 4414565.525 60.549 429229.661 4414561.386 60.550 429230.862 4414559.590 60.535 429246.710 4414536.194 60.393 429252.938 4414527.093 60.370 429255.711 4414523.032 60.348 429256.532 4414521.573 60.295 429259.190 4414517.852 60.330 429261.998 4414513.805 60.308 429263.169 4414512.024 60.268 429268.284 4414505.074 60.226 429273.712 4414498.265 60.188 429278.886 4414492.211 60.149 429289.199 4414481.243 60.076 429298.271 4414472.638 60.026 429304.317 4414467.267 59.983 429311.245 4414461.679 59.969 429315.150 4414458.640 59.957 429332.133 4414446.657 59.813 429345.357 4414438.702 59.748 429356.637 4414432.928 59.714 429361.055 4414430.730 59.681 429365.553 4414428.744 59.670 429370.107 4414426.806 59.655 429374.698 4414424.939 59.623 429389.250 4414419.651 59.528 429397.895 4414416.963 59.481 429405.637 4414414.691 59.422 429406.154 4414414.505 59.392,2,
55,429101.689 4415074.584 62.438 429109.264 4415078.746 62.384 429120.545 4415085.734 62.314 429134.454 4415096.155 62.208,2,
56,429071.019 4415067.945 62.612 429035.985 4415050.384 62.767 429035.800 4415050.299 62.802,2,
57,429126.099 4415104.956 62.171 429124.946 4415104.026 62.171 429120.966 4415101.019 62.195 429117.189 4415098.178 62.219 429113.130 4415095.393 62.251 429108.948 4415092.638 62.280 429104.647 4415090.010 62.306 429100.318 4415087.488 62.328 429095.989 4415085.056 62.347 429091.546 4415082.792 62.378 429086.981 4415080.699 62.412 429081.940 4415078.562 62.450 429070.213 4415074.260 62.537 429033.242 4415055.775 62.703 429032.889 4415055.608 62.713,2,
58,429155.691 4415122.004 62.088 429159.345 4415126.384 62.135 429160.199 4415126.313 62.377 429161.437 4415128.061 62.171 429164.550 4415132.051 62.020 429167.567 4415136.019 61.988 429170.507 4415140.105 61.963 429173.342 4415144.295 61.934 429175.841 4415148.312 61.911 429176.471 4415149.278 61.901 429179.056 4415153.643 61.865 429181.508 4415157.941 61.844 429183.900 4415162.382 61.811 429186.206 4415166.850 61.809 429188.416 4415171.364 61.786 429190.492 4415175.918 61.755 429192.454 4415180.519 61.712 429194.270 4415185.182 61.649 429195.932 4415189.871 61.578 429197.452 4415194.575 61.561 429198.849 4415199.397 61.628 429200.073 4415204.205 61.605 429201.227 4415209.141 61.582 429202.282 4415213.978 61.556 429205.482 4415229.498 61.507 429207.278 4415238.481 61.472 429212.950 4415266.392 61.332 429214.923 4415276.189 61.315 429215.469 4415278.633 61.362 429216.740 4415285.300 61.288 429217.622 4415289.706 61.270 429218.968 4415296.107 61.236 429219.478 4415298.687 61.233 429220.447 4415303.635 61.260 429220.517 4415303.819 61.263 429220.781 4415305.747 61.235 429221.811 4415310.679 61.210 429222.797 4415315.526 61.199 429223.743 4415320.449 61.187 429225.047 4415326.431 61.184 429227.259 4415337.206 61.155 429228.686 4415344.300 61.114 429232.514 4415363.293 61.064 429233.287 4415367.067 61.066 429234.270 4415371.957 61.063 429235.250 4415376.801 61.049 429236.224 4415381.663 61.020 429236.230 4415381.749 61.017 429237.256 4415386.853 60.996 429238.265 4415391.790 60.978 429239.270 4415396.738 60.970 429240.257 4415401.657 60.954 429241.247 4415406.541 60.949 429242.221 4415411.410 60.950 429243.213 4415416.289 60.951 429244.203 4415421.183 60.954 429245.168 4415426.045 60.930 429246.148 4415430.851 60.947 429247.157 4415435.836 60.961 429248.169 4415440.768 60.972 429249.178 4415445.742 60.964 429250.161 4415450.647 60.976 429251.190 4415455.570 60.998 429252.186 4415460.415 61.017 429253.159 4415465.191 61.026 429253.507 4415466.726 61.027 429253.565 4415467.280 61.036 429254.043 4415469.712 61.040 429255.069 4415474.725 61.050 429256.063 4415479.672 61.034 429256.125 4415480.346 61.040,2,
59,429256.767 4415487.554 61.074 429255.471 4415480.790 61.050 429254.921 4415480.438 61.045 429254.153 4415476.861 61.051 429253.146 4415471.929 61.034 429252.163 4415467.041 61.023 429251.170 4415462.122 61.014 429250.173 4415457.205 60.995 429249.480 4415453.787 60.986 429248.732 4415450.090 60.976 429247.736 4415445.188 60.971 429247.030 4415441.543 60.984 429244.879 4415431.010 60.961 429243.907 4415426.174 60.942 429243.793 4415425.477 60.948 429242.234 4415417.995 60.959 429241.224 4415413.158 60.954 429240.263 4415408.299 60.952 429239.310 4415403.420 60.956 429238.308 4415398.553 60.971 429237.313 4415393.619 60.974 429236.288 4415388.682 60.994 429235.306 4415383.726 61.002 429234.309 4415378.794 61.032 429233.348 4415373.918 61.053 429232.366 4415369.063 61.060 429231.377 4415364.156 61.062 429230.416 4415359.352 61.079 429229.409 4415354.398 61.097 429228.446 4415349.546 61.111 429227.454 4415344.645 61.119 429226.454 4415339.728 61.144 429226.459 4415339.639 61.151 429224.615 4415330.624 61.171 429223.631 4415325.675 61.185 429222.619 4415320.750 61.196 429221.641 4415315.823 61.211 429220.635 4415310.900 61.218 429219.630 4415305.956 61.240 429218.597 4415300.870 61.243 429217.625 4415295.969 61.233 429216.626 4415291.049 61.267 429215.655 4415286.186 61.291 429214.651 4415281.325 61.302 429213.687 4415276.479 61.322 429212.680 4415271.564 61.338 429211.696 4415266.686 61.344 429210.713 4415261.814 61.367 429209.705 4415256.895 61.392 429208.716 4415252.033 61.409 429208.706 4415251.886 61.405 429207.946 4415247.660 61.439 429206.956 4415242.766 61.465 429205.852 4415237.885 61.485 429204.058 4415228.994 61.520 429204.042 4415228.914 61.520 429203.043 4415224.017 61.540 429202.033 4415219.105 61.563 429201.437 4415216.201 61.561 429200.992 4415213.887 61.564 429200.428 4415211.266 61.569 429199.320 4415206.379 61.622 429198.042 4415201.479 61.628 429196.705 4415196.631 61.614 429195.213 4415191.862 61.599 429193.597 4415187.111 61.653 429191.827 4415182.441 61.709 429189.910 4415177.805 61.742 429187.864 4415173.230 61.779 429185.711 4415168.740 61.803 429183.419 4415164.249 61.807 429181.030 4415159.797 61.861 429181.008 4415159.663 61.858 429178.797 4415155.792 61.869 429176.289 4415151.505 61.893 429173.636 4415147.214 61.912 429170.932 4415143.000 61.951 429168.081 4415138.934 61.980 429165.121 4415134.876 62.004 429162.004 4415130.859 62.037 429158.950 4415126.883 62.071,2,
60,429164.627 4415146.525 61.859 429161.755 4415142.412 61.886 429158.758 4415138.383 61.913 429155.659 4415134.463 61.955 429152.476 4415130.555 61.974 429152.058 4415130.035 61.974 429149.652 4415127.277 61.995 429149.315 4415126.908 62.007,2,
61,429391.136 4415404.953 60.455 429387.464 4415408.355 60.469 429383.767 4415411.736 60.490 429380.093 4415415.125 60.511 429376.406 4415418.525 60.529 429372.715 4415421.933 60.540 429369.039 4415425.327 60.557 429363.231 4415430.668 60.579 429362.894 4415430.989 60.580 429359.233 4415434.356 60.599 429355.540 4415437.744 60.617 429351.860 4415441.118 60.637 429348.194 4415444.505 60.648 429344.520 4415447.890 60.679 429340.842 4415451.264 60.715 429337.176 4415454.634 60.744 429333.499 4415458.031 60.769 429329.813 4415461.448 60.786 429326.164 4415465.460 60.801 429319.283 4415473.340 60.903 429312.138 4415480.258 60.894 429287.804 4415502.644 60.987 429287.577 4415502.839 60.981,2,
62,429785.685 4414649.954 59.742 429795.186 4414697.082 59.693,2,
63,430232.295 4414624.108 58.344 430228.714 4414626.065 58.232 430224.316 4414628.473 58.228 430219.986 4414630.868 58.222 430215.637 4414633.250 58.226 430211.218 4414635.671 58.239 430206.809 4414638.100 58.251 430202.469 4414640.477 58.247 430198.101 4414642.903 58.241 430193.735 4414645.276 58.236 430189.338 4414647.697 58.233 430184.982 4414650.104 58.221 430180.654 4414652.466 58.216 430176.256 4414654.896 58.210 430171.835 4414657.347 58.204 430167.443 4414659.787 58.192 430163.057 4414662.212 58.180 430158.688 4414664.641 58.164 430154.302 4414667.093 58.145 430153.366 4414667.605 58.144 430149.003 4414670.068 58.130 430144.698 4414672.520 58.117 430140.364 4414674.999 58.100 430136.076 4414677.499 58.087 430131.786 4414680.059 58.077 430127.510 4414682.628 58.072 430123.224 4414685.226 58.061 430118.961 4414687.836 58.049 430114.718 4414690.466 58.046 430110.472 4414693.120 58.042 430106.265 4414695.791 58.033 430102.048 4414698.513 58.025 430097.868 4414701.250 58.020 430093.718 4414704.015 58.024 430089.574 4414706.769 58.026 430085.427 4414709.536 58.031 430081.249 4414712.329 58.030 430077.102 4414715.161 58.030 430072.939 4414717.960 58.034 430068.788 4414720.768 58.034 430064.655 4414723.568 58.029 430060.530 4414726.369 58.036 430056.379 4414729.186 58.052 430054.158 4414730.714 58.062 430017.933 4414755.331 58.335 430013.820 4414758.156 58.243 430009.620 4414761.019 58.263 430005.416 4414763.857 58.290 430001.310 4414766.694 58.310 429997.202 4414769.474 58.334 429993.113 4414772.262 58.362 429988.978 4414775.074 58.398 429984.872 4414777.876 58.424 429980.732 4414780.705 58.453 429976.593 4414783.513 58.489 429972.464 4414786.330 58.527 429968.323 4414789.142 58.559 429964.215 4414791.958 58.583 429960.070 4414794.784 58.606 429955.934 4414797.582 58.634 429951.789 4414800.397 58.672 429947.673 4414803.175 58.716 429943.497 4414806.013 58.760 429939.342 4414808.842 58.804 429935.223 4414811.657 58.844 429930.958 4414814.514 58.886 429926.832 4414817.370 58.927 429922.736 4414820.170 58.978 429918.916 4414822.737 59.014 429914.772 4414825.570 59.054 429910.584 4414828.424 59.090 429906.465 4414831.234 59.117 429902.894 4414833.756 59.140 429900.457 4414835.674 59.159 429896.497 4414838.789 59.203 429892.569 4414841.977 59.242 429888.661 4414845.120 59.277 429884.663 4414848.035 59.309 429880.504 4414850.882 59.344 429876.422 4414853.715 59.381 429872.274 4414856.551 59.409 429868.143 4414859.401 59.439 429864.022 4414862.232 59.484 429859.911 4414865.043 59.518 429855.811 4414867.870 59.560 429851.720 4414870.682 59.560 429848.717 4414872.767 59.560,2,
64,429861.860 4414860.204 59.528 429857.758 4414863.032 59.560 429853.670 4414865.839 59.605 429849.594 4414868.652 59.652 429848.445 4414869.323 59.669,2,
65,430229.701 4414616.825 58.415 430224.965 4414619.446 58.415 430207.378 4414629.459 58.337 430202.956 4414631.914 58.342 430198.586 4414634.342 58.340 430194.378 4414636.605 58.342 430155.952 4414657.886 58.275 430151.611 4414660.224 58.257 430147.248 4414662.662 58.243 430142.897 4414665.148 58.229 430141.403 4414666.007 58.225 430136.748 4414668.675 58.217 430132.449 4414671.204 58.203 430128.140 4414673.741 58.195 430123.866 4414676.317 58.178 430119.582 4414678.908 58.167 430115.316 4414681.522 58.157 430111.067 4414684.163 58.156 430106.822 4414686.828 58.157 430102.622 4414689.498 58.152 430098.381 4414692.208 58.143 430094.201 4414694.926 58.139 430090.033 4414697.662 58.134 430085.922 4414700.413 58.121 430081.795 4414703.174 58.108 430077.684 4414705.953 58.096 430073.550 4414708.736 58.119 430069.393 4414711.541 58.130 430065.331 4414714.330 58.131 430061.218 4414717.099 58.121 430057.089 4414719.883 58.128 430052.947 4414722.693 58.153 430048.794 4414725.537 58.173 430044.676 4414728.333 58.184 430040.533 4414731.154 58.177 430036.443 4414733.951 58.195 430032.309 4414736.766 58.225 430028.173 4414739.576 58.249 430024.056 4414742.372 58.267 430022.509 4414743.446 58.280 430015.250 4414748.413 58.319 430011.120 4414751.180 58.340 430006.962 4414754.005 58.355 430002.809 4414756.835 58.380 429999.662 4414758.977 58.407 429998.193 4414760.012 58.417 429994.063 4414762.793 58.436 429989.949 4414765.617 58.462 429985.872 4414768.367 58.492 429981.789 4414771.143 58.528 429977.726 4414773.931 58.557 429973.608 4414776.736 58.588 429969.508 4414779.528 58.616 429965.355 4414782.346 58.653 429961.233 4414785.170 58.683 429957.131 4414787.940 58.714 429952.997 4414790.771 58.740 429948.871 4414793.578 58.777 429944.739 4414796.385 58.820 429940.566 4414799.233 58.866 429936.384 4414802.064 58.900 429932.218 4414804.917 58.930 429928.050 4414807.747 58.984 429923.954 4414810.536 59.033 429919.801 4414813.353 59.068 429915.669 4414816.188 59.109 429911.557 4414818.992 59.149 429907.344 4414821.911 59.188 429902.292 4414825.291 59.229 429901.796 4414825.641 59.234 429898.840 4414827.635 59.256 429894.704 4414830.466 59.294 429890.561 4414833.316 59.331 429886.378 4414836.148 59.373 429882.238 4414838.988 59.411 429878.121 4414841.798 59.431 429873.973 4414844.579 59.471 429870.684 4414846.892 59.507 429866.904 4414849.486 59.541 429862.794 4414852.233 59.584 429858.573 4414855.102 59.616 429854.540 4414857.887 59.638 429850.356 4414860.725 59.683 429847.496 4414862.608 59.718 429846.804 4414863.027 59.718,2,
66,430202.525 4414627.371 58.384 430206.909 4414624.942 58.385 430211.282 4414622.547 58.369 430215.669 4414620.137 58.342 430220.046 4414617.704 58.352 430224.459 4414615.281 58.344 430228.262 4414613.207 58.333 430228.568 4414613.157 58.423,2,
67,430200.850 4414624.929 58.344 430201.055 4414624.868 58.339 430205.474 4414622.441 58.344 430209.849 4414620.021 58.307 430214.240 4414617.618 58.286 430218.633 4414615.204 58.297 430223.000 4414612.798 58.295 430228.063 4414610.045 58.357,2,
68,429846.440 4414861.837 59.846 429846.654 4414861.697 59.789 429850.826 4414858.903 59.749 429854.943 4414856.076 59.711 429859.113 4414853.243 59.686 429863.246 4414850.425 59.648 429867.293 4414847.679 59.616 429871.421 4414844.871 59.572 429875.552 4414842.081 59.540 429879.709 4414839.251 59.505 429883.907 4414836.390 59.479 429887.984 4414833.610 59.441 429892.034 4414830.857 59.403 429896.165 4414828.012 59.367 429900.306 4414825.198 59.338 429904.465 4414822.380 59.299 429908.608 4414819.542 59.265 429912.767 4414816.728 59.223 429916.889 4414813.915 59.185 429921.045 4414811.079 59.146 429925.175 4414808.265 59.112 429929.355 4414805.417 59.057 429933.603 4414802.536 59.015 429937.702 4414799.748 58.982 429941.880 4414796.881 58.941 429946.044 4414794.037 58.900 429950.226 4414791.239 58.859 429954.290 4414788.445 58.827 429958.394 4414785.634 58.795 429962.556 4414782.826 58.769 429966.745 4414779.985 58.735 429970.943 4414777.134 58.696 429975.119 4414774.265 58.666 429979.263 4414771.468 58.635 429983.567 4414768.546 58.596 429987.698 4414765.679 58.565 429991.884 4414762.867 58.536 429996.026 4414760.020 58.511 430000.148 4414757.217 58.482 430004.274 4414754.411 58.451 430008.376 4414751.634 58.432 430012.451 4414748.844 58.412 430014.556 4414747.424 58.399 430023.047 4414741.641 58.348 430027.140 4414738.841 58.329 430031.258 4414736.031 58.306 430035.428 4414733.228 58.276 430039.558 4414730.412 58.255 430043.719 4414727.571 58.260 430047.894 4414724.717 58.251 430052.054 4414721.897 58.233 430056.187 4414719.083 58.209 430060.318 4414716.276 58.202 430064.664 4414713.332 58.213 430068.741 4414710.556 58.204 430072.888 4414707.759 58.195 430077.136 4414704.883 58.179 430081.363 4414702.036 58.185 430085.562 4414699.221 58.200 430089.777 4414696.420 58.209 430093.756 4414693.780 58.214 430097.981 4414691.054 58.218 430102.190 4414688.366 58.228 430106.400 4414685.689 58.235 430110.633 4414683.059 58.240 430114.867 4414680.403 58.241 430119.115 4414677.816 58.250 430123.415 4414675.224 58.259 430127.722 4414672.630 58.274 430132.010 4414670.113 58.286 430136.330 4414667.589 58.295 430140.627 4414665.110 58.303 430145.015 4414662.598 58.316 430149.346 4414660.133 58.334 430153.699 4414657.679 58.343 430154.696 4414657.140 58.346 430159.113 4414654.683 58.372 430163.481 4414652.285 58.392 430167.904 4414649.863 58.396 430172.233 4414647.467 58.394 430176.678 4414645.061 58.404 430181.000 4414642.673 58.411 430183.366 4414641.395 58.418 430184.495 4414640.712 58.417 430188.855 4414638.327 58.417 430193.217 4414635.952 58.426 430197.561 4414633.574 58.423 430201.906 4414631.187 58.423 430206.301 4414628.784 58.422 430210.702 4414626.351 58.413 430215.025 4414623.950 58.409 430216.378 4414623.260 58.409 430217.798 4414622.425 58.403 430222.167 4414620.047 58.410 430224.117 4414619.116 58.410,2,
69,429860.224 4414857.704 59.570 429856.097 4414860.483 59.596 429852.428 4414862.962 59.633 429847.432 4414866.369 59.774,2,
70,429845.166 4414853.958 59.647 429849.655 4414850.916 59.599 429853.820 4414848.082 59.564 429857.929 4414845.286 59.537 429862.048 4414842.483 59.498 429866.194 4414839.656 59.469 429870.316 4414836.858 59.441 429874.452 4414834.063 59.411 429878.557 4414831.269 59.380 429882.710 4414828.424 59.344 429886.871 4414825.581 59.306 429891.074 4414822.725 59.268 429895.143 4414819.942 59.231 429899.243 4414817.136 59.191 429903.375 4414814.325 59.153 429907.530 4414811.520 59.115 429911.679 4414808.709 59.083 429915.779 4414805.901 59.044 429919.904 4414803.080 58.998 429924.049 4414800.266 58.959 429928.176 4414797.472 58.925 429932.305 4414794.651 58.883 429936.419 4414791.864 58.854 429940.560 4414789.054 58.813 429944.679 4414786.240 58.768 429948.815 4414783.441 58.732 429952.934 4414780.629 58.698 429957.043 4414777.824 58.662 429961.130 4414775.035 58.624 429965.251 4414772.212 58.587 429969.403 4414769.397 58.552 429973.551 4414766.550 58.521 429977.683 4414763.759 58.490 429981.807 4414760.953 58.462 429985.967 4414758.135 58.433 429990.108 4414755.301 58.402 429994.229 4414752.486 58.374 429998.364 4414749.665 58.347 430002.506 4414746.850 58.327 430006.660 4414744.034 58.308 430010.776 4414741.229 58.289 430013.248 4414739.566 58.279 430013.347 4414739.492 58.320 430047.899 4414715.966 58.141 430052.040 4414713.141 58.130 430056.190 4414710.320 58.123 430060.373 4414707.470 58.119 430064.478 4414704.685 58.113 430068.610 4414701.884 58.108 430072.743 4414699.098 58.108 430076.849 4414696.293 58.104 430080.992 4414693.504 58.102 430085.135 4414690.740 58.105 430089.314 4414687.995 58.105 430093.517 4414685.284 58.102 430097.728 4414682.606 58.109 430101.924 4414679.927 58.109 430106.164 4414677.262 58.113 430110.430 4414674.620 58.126 430114.694 4414672.006 58.137 430118.947 4414669.419 58.143 430123.234 4414666.847 58.150 430127.507 4414664.304 58.162 430131.808 4414661.779 58.164 430136.181 4414659.243 58.174 430140.541 4414656.735 58.187 430144.929 4414654.249 58.209 430149.331 4414651.798 58.225 430153.694 4414649.379 58.241 430158.074 4414646.957 58.254 430162.484 4414644.536 58.260 430166.809 4414642.143 58.271 430171.198 4414639.654 58.281 430175.440 4414637.002 58.289 430179.634 4414634.250 58.293 430183.780 4414631.487 58.299 430188.024 4414628.769 58.309 430192.378 4414626.330 58.308 430196.755 4414623.927 58.307 430201.105 4414621.533 58.308 430205.505 4414619.086 58.286 430209.872 4414616.699 58.238 430214.282 4414614.272 58.241 430218.627 4414611.903 58.253 430223.039 4414609.480 58.248 430227.353 4414607.137 58.252,2,
71,429800.126 4414345.925 58.373 429795.158 4414346.907 58.391 429790.211 4414347.929 58.400 429785.363 4414348.917 58.424 429780.458 4414349.906 58.453 429775.542 4414350.904 58.463 429770.554 4414351.904 58.470 429765.685 4414352.890 58.491 429760.777 4414353.874 58.507 429755.876 4414354.898 58.501 429751.197 4414355.814 58.537,2,
72,429929.708 4414319.692 57.947 429924.795 4414320.675 57.955 429919.892 4414321.660 57.971 429915.038 4414322.642 57.977 429910.192 4414323.618 57.992 429905.236 4414324.639 58.004 429900.295 4414325.634 58.023 429895.449 4414326.632 58.038 429890.504 4414327.614 58.055 429885.711 4414328.581 58.071 429880.731 4414329.591 58.088 429875.852 4414330.572 58.107 429870.948 4414331.573 58.125 429866.052 4414332.569 58.139 429861.163 4414333.542 58.158 429856.254 4414334.545 58.170 429851.326 4414335.537 58.191 429847.584 4414336.268 58.206 429846.761 4414336.472 58.209 429838.460 4414338.117 58.221 429831.061 4414339.935 58.257 429826.351 4414341.617 58.266 429821.710 4414343.439 58.270 429816.980 4414345.103 58.273 429812.183 4414346.535 58.281 429807.339 4414347.830 58.299 429802.428 4414348.987 58.319 429801.350 4414349.200 58.326 429800.979 4414349.256 58.324 429793.034 4414350.880 58.348 429781.607 4414353.229 58.392 429776.744 4414354.250 58.404 429771.929 4414355.243 58.420 429768.629 4414355.877 58.427 429765.896 4414356.440 58.438 429751.940 4414359.233 58.488,2,
73,429928.551 4414312.708 58.009 429928.076 4414312.864 58.015 429923.141 4414313.838 58.071 429918.190 4414314.827 58.089 429913.341 4414315.828 58.107 429908.384 4414316.819 58.129 429903.511 4414317.811 58.141 429898.568 4414318.799 58.153 429893.677 4414319.793 58.165 429888.728 4414320.815 58.183 429883.924 4414321.791 58.196 429879.025 4414322.776 58.212 429874.124 4414323.768 58.227 429869.174 4414324.749 58.244 429864.352 4414325.741 58.257 429859.415 4414326.720 58.274 429854.551 4414327.713 58.285 429850.109 4414328.635 58.293 429843.526 4414329.966 58.315 429838.583 4414330.953 58.328 429833.653 4414331.953 58.351 429828.704 4414332.961 58.371 429828.063 4414333.131 58.372 429825.930 4414333.528 58.378 429820.983 4414334.543 58.409 429815.964 4414335.556 58.422 429810.982 4414336.571 58.447 429806.113 4414337.548 58.468 429801.292 4414338.518 58.485 429796.382 4414339.547 58.504 429795.221 4414339.826 58.504 429782.458 4414342.363 58.559 429777.166 4414343.429 58.581 429762.902 4414346.228 58.623 429749.786 4414348.880 58.668,2,
74,429748.824 4414345.345 58.584 429753.788 4414344.357 58.577 429758.688 4414343.351 58.530 429763.610 4414342.350 58.543 429768.530 4414341.361 58.525 429773.472 4414340.356 58.506 429778.309 4414339.376 58.490 429783.239 4414338.361 58.467 429788.160 4414337.348 58.444 429793.022 4414336.366 58.422 429797.918 4414335.375 58.406 429802.804 4414334.366 58.383 429807.697 4414333.402 58.370 429812.641 4414332.388 58.345 429817.560 4414331.387 58.329 429822.456 4414330.396 58.312 429823.656 4414330.148 58.308 429828.601 4414329.159 58.293 429833.481 4414328.157 58.272 429838.412 4414327.169 58.257 429843.293 4414326.167 58.238 429848.207 4414325.172 58.235 429853.098 4414324.192 58.218 429857.915 4414323.214 58.204 429862.763 4414322.221 58.194 429867.647 4414321.226 58.182 429872.527 4414320.245 58.169 429877.479 4414319.250 58.154 429882.370 4414318.266 58.142 429887.299 4414317.251 58.133 429892.211 4414316.252 58.119 429897.042 4414315.306 58.114 429898.716 4414314.935 58.102 429900.226 4414314.639 58.102 429905.125 4414313.657 58.086 429910.114 4414312.642 58.072 429914.957 4414311.654 58.053 429919.874 4414310.685 58.041 429924.444 4414309.754 58.008 429927.774 4414309.070 57.960,2,
75,429799.468 4414342.509 58.410 429786.674 4414345.091 58.476 429771.452 4414348.210 58.519 429750.590 4414352.351 58.601,2,
76,429746.610 4414335.058 58.403 429751.752 4414333.990 58.403 429754.857 4414333.365 58.403 429759.790 4414332.413 58.385 429763.633 4414331.610 58.367 429768.097 4414330.749 58.350 429772.950 4414329.709 58.333 429777.805 4414328.727 58.308 429782.890 4414327.674 58.286 429787.803 4414326.698 58.271 429792.696 4414325.697 58.255 429797.519 4414324.704 58.233 429802.440 4414323.718 58.211 429807.378 4414322.915 58.189 429810.206 4414322.565 58.212,2,
77,429878.010 4414315.599 58.073 429881.087 4414314.920 58.050 429886.202 4414313.891 58.045 429892.441 4414312.644 58.103 429913.213 4414308.464 57.975 429918.111 4414307.457 57.949 429921.333 4414306.865 57.932 429922.702 4414306.509 57.923 429926.431 4414305.749 57.888 429927.031 4414305.566 57.936,2,
78,429877.339 4414312.148 58.105 429914.444 4414304.609 57.966 429926.153 4414302.115 57.878,2,
79,430007.188 4414300.299 57.661 430002.282 4414301.359 57.656 429997.392 4414302.387 57.675 429992.455 4414303.386 57.686 429987.556 4414304.380 57.696 429982.629 4414305.376 57.715 429977.720 4414306.371 57.742 429972.803 4414307.376 57.767 429967.929 4414308.347 57.781 429967.114 4414308.528 57.780,2,
80,430122.971 4414270.218 57.453 430123.123 4414270.373 57.445 430127.001 4414273.470 57.453 430130.881 4414276.653 57.471 430134.636 4414279.900 57.502 430138.378 4414283.276 57.528 430142.055 4414286.678 57.563 430145.605 4414290.137 57.594 430149.056 4414293.623 57.625 430152.510 4414297.228 57.671 430155.894 4414300.917 57.710 430159.191 4414304.664 57.737 430162.441 4414308.460 57.773 430165.612 4414312.370 57.804 430168.708 4414316.273 57.840 430171.725 4414320.282 57.873 430174.685 4414324.351 57.913 430177.521 4414328.455 57.954 430179.239 4414330.968 57.979 430181.955 4414335.175 58.013 430184.602 4414339.447 58.050 430187.162 4414343.756 58.095 430189.623 4414348.114 58.132 430192.014 4414352.506 58.171 430194.306 4414356.940 58.201 430196.559 4414361.456 58.237 430198.709 4414365.958 58.276 430200.744 4414370.517 58.316 430202.684 4414375.147 58.341 430204.563 4414379.827 58.373 430206.328 4414384.500 58.408 430207.987 4414389.206 58.446 430209.563 4414393.925 58.478 430211.052 4414398.690 58.509 430212.471 4414403.502 58.529 430213.800 4414408.328 58.557 430215.101 4414413.159 58.570 430216.285 4414418.036 58.583 430217.448 4414422.866 58.599 430218.552 4414427.739 58.606 430219.290 4414431.214 58.613 430219.397 4414431.595 58.623,2,
81,430116.996 4414274.423 57.385 430118.492 4414275.578 57.320 430122.441 4414278.740 57.301 430126.292 4414281.899 57.321 430130.084 4414285.192 57.326 430131.664 4414286.649 57.374 430135.363 4414290.052 57.403 430139.009 4414293.468 57.435 430142.566 4414296.991 57.487 430146.058 4414300.612 57.523 430149.431 4414304.238 57.560 430152.766 4414307.954 57.592 430156.037 4414311.733 57.636 430159.193 4414315.568 57.672 430162.326 4414319.516 57.701 430164.814 4414322.767 57.743 430169.900 4414329.760 57.803 430172.752 4414333.910 57.843 430175.525 4414338.104 57.874 430176.575 4414339.835 57.883 430179.193 4414344.023 57.930 430181.716 4414348.370 57.973 430182.128 4414349.036 57.979 430184.035 4414352.514 58.009 430186.434 4414356.988 58.058 430190.114 4414363.975 58.117 430192.759 4414369.835 58.161 430194.778 4414374.425 58.195 430196.693 4414379.044 58.225 430198.550 4414383.723 58.264 430200.263 4414388.381 58.295 430201.922 4414393.151 58.332 430202.682 4414395.402 58.347 430204.483 4414401.140 58.399 430205.248 4414403.721 58.425 430206.609 4414408.547 58.460 430207.903 4414413.376 58.488 430209.110 4414418.217 58.518 430210.266 4414423.044 58.549 430211.384 4414427.916 58.585 430211.497 4414428.415 58.587 430213.328 4414436.346 58.641,2,
82,430212.507 4414437.082 58.645 430211.571 4414432.407 58.581 430210.510 4414427.503 58.548 430210.011 4414425.423 58.526 430209.012 4414421.125 58.495 430207.816 4414416.329 58.466 430206.622 4414411.667 58.438 430205.306 4414406.823 58.403 430203.818 4414401.793 58.358 430203.352 4414400.307 58.337 430202.641 4414398.050 58.322 430201.521 4414394.497 58.280 430198.126 4414384.940 58.216 430196.299 4414380.254 58.175 430195.921 4414379.307 58.169 430194.585 4414376.156 58.148 430192.601 4414371.534 58.115 430190.519 4414367.028 58.076 430188.321 4414362.512 58.035 430186.039 4414358.019 58.002 430185.579 4414357.145 57.992 430184.617 4414355.348 57.978 430182.300 4414351.066 57.938 430179.772 4414346.693 57.896 430177.696 4414343.229 57.869 430176.697 4414341.575 57.849 430173.944 4414337.309 57.810 430172.555 4414335.247 57.795 430170.977 4414332.825 57.777 430168.107 4414328.714 57.738 430165.184 4414324.630 57.707 430162.163 4414320.630 57.660 430159.096 4414316.737 57.627 430155.925 4414312.909 57.590 430152.699 4414309.139 57.547 430149.355 4414305.412 57.514 430145.933 4414301.693 57.475 430144.186 4414299.805 57.455 430142.666 4414298.361 57.437 430139.190 4414294.840 57.393 430135.550 4414291.389 57.349 430131.906 4414288.017 57.320 430128.128 4414284.673 57.303 430124.344 4414281.464 57.298 430122.470 4414280.012 57.291 430121.114 4414278.933 57.339 430119.063 4414277.236 57.354 430116.253 4414274.869 57.390,2,
83,430205.821 4414393.775 58.389 430207.363 4414398.559 58.426 430208.773 4414403.340 58.453 430210.126 4414408.132 58.496 430211.393 4414412.954 58.520 430212.588 4414417.733 58.535 430213.738 4414422.576 58.559 430214.856 4414427.454 58.584 430215.952 4414432.359 58.611 430216.315 4414433.900 58.616 430216.360 4414434.043 58.632,2,
84,430206.407 4414441.856 58.582 430206.336 4414441.612 58.515 430205.321 4414436.756 58.486 430204.253 4414431.843 58.448 430203.846 4414430.287 58.433 430202.500 4414424.213 58.383 430201.342 4414419.347 58.341 430200.701 4414416.886 58.322 430198.911 4414410.039 58.264 430198.202 4414407.698 58.235 430194.904 4414396.869 58.205 430191.316 4414386.654 58.131 430190.744 4414385.293 58.043 430188.868 4414380.664 58.001 430186.892 4414376.061 57.967 430184.841 4414371.469 57.927 430182.660 4414366.935 57.882 430180.426 4414362.440 57.852 430178.078 4414358.011 57.817 430175.671 4414353.600 57.785 430173.769 4414350.327 57.746 430172.376 4414347.983 57.727 430169.720 4414343.754 57.682 430167.023 4414339.558 57.654 430164.210 4414335.431 57.615 430161.335 4414331.320 57.568 430158.381 4414327.282 57.539 430155.337 4414323.311 57.497 430152.163 4414319.371 57.453 430148.950 4414315.560 57.409 430145.640 4414311.821 57.371 430145.082 4414311.200 57.369 430143.844 4414309.841 57.346 430140.466 4414306.167 57.307 430137.001 4414302.599 57.280 430133.475 4414299.111 57.241 430132.405 4414298.065 57.230 430130.843 4414296.633 57.218 430127.152 4414293.253 57.194 430123.413 4414289.875 57.186 430119.643 4414286.638 57.201 430115.789 4414283.495 57.230 430111.927 4414280.390 57.288 430110.480 4414279.282 57.311 430110.252 4414279.124 57.401,2,
85,430144.451 4414305.243 57.385 430140.983 4414301.628 57.354 430137.455 4414298.080 57.323 430133.874 4414294.604 57.285 430130.125 4414291.178 57.252 430126.548 4414287.932 57.234 430122.791 4414284.707 57.239 430118.915 4414281.538 57.262 430115.013 4414278.393 57.299 430113.472 4414277.156 57.318 430113.230 4414276.969 57.398,2,
86,430228.283 4414474.881 58.801 430229.632 4414481.621 58.781 430230.171 4414484.348 58.799 430230.464 4414485.970 58.821 430231.450 4414490.855 58.809 430231.981 4414493.217 58.802 430232.192 4414494.573 58.801 430233.184 4414499.479 58.775 430234.164 4414504.381 58.744 430235.121 4414509.294 58.718 430236.109 4414514.197 58.681 430237.103 4414519.142 58.653 430238.073 4414524.054 58.619 430239.040 4414528.965 58.589 430239.500 4414531.168 58.579 430239.977 4414533.460 58.560 430240.916 4414538.350 58.526 430241.912 4414543.235 58.484 430242.012 4414543.787 58.476 430242.790 4414547.622 58.424 430243.790 4414552.578 58.356 430244.768 4414557.490 58.287 430245.739 4414562.323 58.209 430246.729 4414567.191 58.138 430247.687 4414572.091 58.107 430248.528 4414576.047 58.106 430249.676 4414581.403 58.162,2,
87,430242.386 4414584.656 58.195 430240.303 4414575.336 58.167 430239.335 4414570.411 58.196 430238.336 4414565.486 58.272 430237.377 4414560.614 58.349 430236.384 4414555.700 58.423 430236.209 4414554.999 58.429 430234.936 4414548.614 58.499 430233.985 4414543.667 58.566 430232.917 4414538.394 58.619 430232.122 4414534.458 58.668 430231.161 4414529.548 58.702 430230.169 4414524.607 58.730 430229.196 4414519.731 58.770 430228.222 4414514.765 58.800 430227.247 4414509.869 58.831 430226.259 4414504.895 58.850 430225.288 4414500.004 58.881 430225.055 4414498.897 58.883 430224.559 4414496.458 58.877 430223.595 4414491.508 58.890 430222.615 4414486.615 58.858 430222.273 4414484.948 58.850 430220.078 4414473.958 58.915,2,
88,430221.048 4414473.882 58.865 430222.180 4414479.843 58.865 430222.892 4414483.425 58.843 430223.147 4414484.572 58.847 430224.130 4414489.478 58.887 430225.102 4414494.382 58.873 430226.664 4414502.816 58.881 430227.668 4414507.693 58.850 430228.634 4414512.532 58.825 430229.594 4414517.455 58.793 430230.574 4414522.307 58.763 430231.557 4414527.264 58.729 430232.538 4414532.152 58.700 430233.003 4414534.493 58.686 430233.552 4414537.181 58.650 430234.532 4414542.113 58.593 430235.488 4414546.902 58.532 430235.808 4414548.624 58.512 430237.129 4414555.121 58.435 430237.723 4414558.044 58.394 430240.037 4414569.427 58.200 430240.825 4414573.578 58.181 430241.618 4414577.579 58.166 430243.112 4414584.296 58.166,2,
89,430235.526 4414587.549 58.192 430235.148 4414585.473 58.128 430234.183 4414580.596 58.124 430233.182 4414575.697 58.145 430232.205 4414570.805 58.186 430231.237 4414565.902 58.237 430230.270 4414560.972 58.313 430229.276 4414556.076 58.399 430228.979 4414554.531 58.418 430225.895 4414538.975 58.557 430224.893 4414534.079 58.581 430223.927 4414529.229 58.619 430222.945 4414524.316 58.654 430221.982 4414519.412 58.689 430221.002 4414514.566 58.714 430220.041 4414509.665 58.742 430219.091 4414504.801 58.768 430218.090 4414499.866 58.787 430217.127 4414494.936 58.780 430216.166 4414490.074 58.759 430215.148 4414485.015 58.740 430214.999 4414484.351 58.800,2,
90,430246.282 4414582.934 58.174 430246.181 4414582.496 58.157 430245.566 4414579.374 58.136 430244.590 4414574.505 58.138 430243.608 4414569.540 58.163 430242.635 4414564.653 58.226 430241.648 4414559.759 58.306 430240.655 4414554.873 58.376 430239.678 4414549.947 58.441 430238.290 4414543.112 58.543,2,
91,429966.414 4414304.986 57.492 429980.205 4414302.313 57.492 429984.872 4414301.359 57.492 429989.732 4414300.372 57.492 429994.595 4414299.378 57.492 429999.468 4414298.358 57.492 430004.429 4414297.299 57.492 430009.260 4414296.215 57.492 430019.639 4414293.931 57.492 430031.164 4414290.854 57.492 430040.934 4414287.601 57.492 430049.810 4414284.478 57.492 430055.358 4414282.237 57.492 430062.190 4414279.384 57.492 430068.024 4414276.811 57.492 430072.299 4414274.657 57.492 430076.302 4414272.526 57.492 430080.991 4414269.949 57.492,2,
92,430015.690 4414301.953 57.766 430001.795 4414305.013 57.766 429985.065 4414308.542 57.766 429967.694 4414312.051 57.766,2,
93,430088.244 4414274.366 57.824 430079.193 4414278.981 57.824 430063.131 4414286.413 57.824 430045.582 4414293.215 57.824 430035.622 4414296.673 57.824,2,
94,429965.726 4414301.436 57.492 429979.499 4414298.767 57.492 429984.150 4414297.816 57.492 429989.010 4414296.829 57.492 429993.862 4414295.837 57.492 429998.720 4414294.820 57.492 430003.656 4414293.767 57.492 430008.476 4414292.685 57.492 430018.784 4414290.417 57.492 430030.125 4414287.389 57.492 430039.522 4414284.260 57.492 430040.152 4414284.043 57.492,2,
95,429965.003 4414297.706 57.492 429978.757 4414295.040 57.492 429983.391 4414294.092 57.492 429988.251 4414293.105 57.492 429993.093 4414292.116 57.492 429997.934 4414291.102 57.492 430002.843 4414290.055 57.492 430007.651 4414288.976 57.492 430017.885 4414286.724 57.492 430029.034 4414283.747 57.492 430038.532 4414280.585 57.492 430047.189 4414277.539 57.492 430052.540 4414275.377 57.492 430059.265 4414272.569 57.492 430064.857 4414270.103 57.492 430068.888 4414268.072 57.492 430072.774 4414266.003 57.492 430077.419 4414263.450 57.492,2,
96,429405.354 4414422.157 59.408 429399.449 4414423.967 59.427 429390.812 4414426.777 59.499 429385.170 4414428.703 59.525 429376.745 4414431.904 59.554 429371.331 4414434.162 59.579 429363.077 4414437.871 59.621 429357.745 4414440.502 59.643 429349.731 4414444.677 59.681 429344.583 4414447.596 59.703 429336.900 4414452.330 59.740 429331.905 4414455.513 59.769 429324.557 4414460.663 59.819 429319.833 4414464.117 59.855 429312.711 4414469.744 59.910 429308.162 4414473.536 59.925 429301.478 4414479.531 59.964 429297.211 4414483.604 59.997 429290.813 4414489.998 60.048 429286.670 4414494.446 60.080 429280.815 4414501.158 60.109 429277.118 4414505.695 60.141 429271.607 4414512.847 60.186 429268.148 4414517.599 60.210 429262.992 4414524.974 60.256 429259.682 4414529.912 60.289 429254.593 4414537.463 60.337 429251.294 4414542.351 60.364 429246.237 4414549.861 60.403 429242.900 4414554.777 60.427 429237.867 4414562.257 60.457 429234.539 4414567.235 60.479 429229.528 4414574.623 60.520 429226.222 4414579.525 60.548 429221.208 4414586.970 60.579 429217.865 4414591.868 60.608 429212.815 4414599.342 60.653 429209.426 4414604.341 60.685 429204.443 4414611.747 60.729 429201.181 4414616.589 60.753 429196.106 4414624.111 60.791 429192.769 4414629.016 60.819 429187.747 4414636.452 60.857 429184.361 4414641.452 60.880 429179.300 4414648.932 60.936 429176.006 4414653.828 60.967 429170.947 4414661.334 60.998 429167.677 4414666.152 61.022 429162.609 4414673.669 61.062 429159.250 4414678.539 61.086 429154.178 4414686.150 61.142 429150.884 4414691.049 61.166 429145.808 4414698.450 61.211 429142.603 4414703.258 61.230 429137.557 4414710.694 61.264 429134.220 4414715.654 61.295 429129.169 4414723.148 61.353 429127.537 4414725.558 61.366 429125.905 4414727.967 61.380 429125.885 4414727.999 61.380 429120.824 4414735.500 61.429 429117.493 4414740.432 61.458 429112.385 4414747.986 61.498 429109.147 4414752.782 61.520 429104.110 4414760.251 61.553 429100.796 4414765.268 61.578 429096.026 4414772.883 61.621 429093.173 4414778.153 61.642 429089.156 4414786.171 61.706 429086.566 4414791.557 61.737 429082.823 4414799.788 61.765 429080.362 4414805.286 61.792 429077.138 4414813.461 61.842 429075.189 4414819.126 61.864 429072.585 4414827.741 61.916 429071.030 4414833.403 61.952 429068.982 4414842.096 61.989 429067.852 4414847.908 62.014 429066.380 4414856.790 62.048 429065.600 4414862.722 62.081 429064.656 4414871.671 62.113 429064.115 4414877.560 62.128 429063.316 4414886.481 62.177 429062.780 4414892.371 62.204 429061.946 4414901.325 62.249 429061.396 4414907.142 62.276 429060.462 4414916.215 62.316 429059.755 4414922.043 62.343 429058.362 4414931.020 62.391 429057.328 4414936.763 62.413 429055.498 4414945.649 62.456 429054.210 4414951.424 62.484 429052.070 4414960.187 62.518 429050.610 4414965.982 62.551 429048.169 4414974.618 62.584 429046.423 4414980.270 62.617 429044.758 4414985.217 62.643,1,
97,429058.296 4414946.371 62.441 429057.121 4414952.021 62.430 429055.063 4414961.071 62.467 429053.617 4414966.713 62.490 429051.070 4414975.547 62.539 429049.301 4414981.120 62.565 429047.584 4414986.258 62.644,1,
98,429127.805 4415101.779 62.432 429121.780 4415097.167 62.432 429115.783 4415092.883 62.432 429110.422 4415089.392 62.432 429105.306 4415086.251 62.378 429097.657 4415081.713 62.436 429092.503 4415078.935 62.439 429084.805 4415074.827 62.528 429079.281 4415072.026 62.559 429071.019 4415067.945 62.612,1,
99,429040.039 4415043.673 62.659 429048.558 4415047.917 62.659 429061.268 4415054.300 62.659 429066.972 4415057.165 62.626 429074.753 4415060.812 62.558 429080.323 4415063.587 62.552 429088.760 4415067.894 62.477 429093.771 4415070.391 62.462 429101.689 4415074.584 62.438,1,
100,429182.519 4415179.019 61.688 429180.745 4415175.163 61.710 429179.710 4415173.038 61.713 429177.811 4415169.202 61.734 429176.674 4415167.049 61.732 429174.712 4415163.337 61.742 429173.637 4415161.408 61.758 429171.561 4415157.758 61.794 429170.959 4415156.726 61.802 429170.356 4415155.696 61.810 429168.289 4415152.305 61.828 429167.100 4415150.370 61.839 429164.627 4415146.525 61.859,1,
101,429253.150 4415490.077 61.034 429252.012 4415484.583 61.008 429250.373 4415476.079 60.994 429249.184 4415470.310 60.975 429247.402 4415461.559 60.948 429246.239 4415455.811 60.937 429244.464 4415447.125 60.926 429243.299 4415441.355 60.918 429241.514 4415432.517 60.910 429240.341 4415426.664 60.888 429238.579 4415417.917 60.901 429237.379 4415412.035 60.897 429235.599 4415403.282 60.915 429234.389 4415397.378 60.935 429232.631 4415388.621 60.959 429231.458 4415382.785 60.972 429229.683 4415373.960 61.012 429228.523 4415368.200 61.030 429226.772 4415359.476 61.053 429225.585 4415353.660 61.082 429223.829 4415344.902 61.108 429222.647 4415339.136 61.125 429220.911 4415330.388 61.147 429219.719 4415324.530 61.162 429217.941 4415315.683 61.179 429216.760 4415309.861 61.208 429215.005 4415301.118 61.210 429213.863 4415295.404 61.232 429212.137 4415286.795 61.278 429211.107 4415281.995 61.284 429209.170 4415272.157 61.311 429208.004 4415266.493 61.334 429206.162 4415257.425 61.374 429204.998 4415251.673 61.394 429203.231 4415242.922 61.426 429202.042 4415237.120 61.444 429200.287 4415228.437 61.488 429199.075 4415222.592 61.494 429197.282 4415213.853 61.528 429195.956 4415207.955 61.554 429193.724 4415199.322 61.617 429191.955 4415193.660 61.595 429189.038 4415185.376 61.653 429186.822 4415179.929 61.684 429183.161 4415171.883 61.753 429180.484 4415166.566 61.762 429176.239 4415158.692 61.823 429173.270 4415153.543 61.840 429168.555 4415145.987 61.887,1,
102,429158.359 4415118.768 62.005 429166.682 4415128.921 62.005 429170.313 4415133.523 62.047 429175.415 4415140.795 61.912 429178.539 4415145.757 61.941 429183.108 4415153.378 61.806 429186.018 4415158.589 61.815 429190.112 4415166.415 61.764 429192.665 4415171.759 61.737 429196.206 4415180.047 61.643 429198.290 4415185.459 61.565 429201.108 4415194.087 61.515 429202.643 4415199.541 61.587 429204.687 4415208.120 61.530 429205.915 4415213.909 61.544 429207.734 4415222.567 61.506 429208.942 4415228.465 61.479 429210.718 4415237.269 61.453 429211.889 4415243.026 61.427 429213.657 4415251.970 61.391 429213.927 4415253.283 61.367 429214.809 4415257.567 61.344 429216.662 4415266.452 61.315 429217.819 4415272.119 61.409 429219.574 4415281.045 61.283 429220.032 4415283.309 61.256 429220.679 4415286.364 61.238 429222.553 4415295.819 61.193 429223.573 4415300.854 61.176 429225.241 4415312.051 61.189 429226.270 4415317.216 61.159 429228.342 4415324.365 61.128 429229.345 4415330.252 61.113 429231.252 4415338.769 61.082 429232.407 4415344.520 61.058 429234.183 4415353.246 61.047 429235.332 4415358.998 61.032 429237.084 4415367.829 61.004 429238.332 4415373.811 60.986 429240.017 4415382.303 60.962 429241.191 4415388.189 60.935 429243.000 4415397.017 60.922 429244.148 4415402.764 60.911 429245.941 4415411.492 60.915 429247.070 4415417.379 60.911 429248.412 4415426.131 60.913 429249.589 4415432.238 60.934 429251.316 4415440.858 60.929 429252.505 4415446.585 60.932 429253.903 4415453.878 60.932,1,
103,429254.271 4415440.403 60.887 429255.428 4415445.974 60.886 429256.870 4415453.288 60.919,1,
104,429429.017 4415369.984 60.284 429426.144 4415372.705 60.298 429424.670 4415374.078 60.296 429421.704 4415376.818 60.308 429420.249 4415378.150 60.309 429417.441 4415380.767 60.324 429415.895 4415382.162 60.335 429413.117 4415384.758 60.334 429411.789 4415385.966 60.340 429408.832 4415388.678 60.358 429407.373 4415390.021 60.370 429404.417 4415392.734 60.385 429403.006 4415394.043 60.392 429400.003 4415396.811 60.409 429398.611 4415398.111 60.423 429395.660 4415400.807 60.429 429394.219 4415402.134 60.437 429391.136 4415404.953 60.455,1,
105,429605.817 4415068.947 60.485 429602.333 4415073.892 60.482 429597.202 4415081.401 60.454 429593.971 4415086.281 60.437 429589.177 4415093.799 60.403 429586.009 4415098.909 60.388 429581.490 4415106.505 60.358 429578.534 4415111.679 60.345 429574.106 4415119.616 60.313 429571.260 4415124.953 60.284 429567.141 4415132.946 60.270 429564.534 4415138.212 60.261 429560.613 4415146.341 60.225 429558.122 4415151.725 60.211 429554.439 4415160.072 60.183 429552.044 4415165.626 60.168 429548.122 4415174.984 60.148 429546.345 4415179.233 60.133 429542.922 4415187.431 60.098 429540.601 4415193.041 60.072 429537.187 4415201.292 60.059 429534.891 4415206.837 60.043 429531.146 4415215.813 60.022 429529.132 4415220.619 60.011 429525.755 4415228.715 60.024 429523.465 4415234.211 60.038 429519.863 4415242.723 60.030 429517.433 4415248.319 60.014 429513.753 4415256.457 59.966 429511.164 4415261.850 59.933 429507.121 4415269.872 59.946 429504.267 4415275.160 59.972 429499.789 4415282.936 60.006 429496.578 4415288.145 60.018 429491.579 4415295.887 60.023 429488.184 4415300.860 60.028 429483.041 4415308.022 60.045 429479.519 4415312.677 60.061 429473.789 4415319.928 60.089 429469.995 4415324.457 60.107 429463.890 4415331.347 60.137 429459.876 4415335.644 60.158 429453.543 4415342.097 60.184 429449.337 4415346.223 60.203 429442.949 4415352.307 60.229 429438.424 4415356.511 60.254 429432.010 4415362.431 60.288 429427.512 4415366.575 60.316 429420.854 4415372.685 60.338 429416.280 4415376.915 60.354 429409.775 4415382.895 60.380 429405.355 4415386.987 60.407 429398.748 4415393.052 60.451 429394.296 4415397.149 60.466 429387.410 4415403.505 60.501 429383.050 4415407.512 60.517 429376.309 4415413.730 60.544 429371.932 4415417.775 60.580 429365.290 4415423.886 60.602 429360.847 4415427.993 60.607 429354.391 4415433.920 60.615 429349.978 4415438.006 60.619 429342.828 4415444.517 60.698 429338.712 4415448.328 60.720 429332.064 4415454.448 60.794 429327.769 4415458.382 60.824 429320.943 4415464.402 60.865 429316.504 4415468.136 60.862 429309.829 4415474.164 60.912,1,
106,429281.492 4415489.480 61.043 429284.952 4415486.306 61.039 429290.122 4415481.482 61.019 429294.301 4415477.679 60.975 429301.067 4415471.474 60.928 429305.321 4415467.545 60.915 429311.858 4415461.455 60.900 429316.222 4415457.439 60.879 429323.203 4415451.142 60.819 429327.292 4415447.264 60.793 429333.961 4415441.174 60.741 429338.408 4415437.058 60.670 429345.031 4415430.996 60.648 429349.530 4415426.814 60.643 429355.951 4415420.920 60.636 429360.401 4415416.787 60.617 429367.058 4415410.663 60.584 429371.490 4415406.581 60.551 429378.211 4415400.408 60.511 429382.527 4415396.420 60.480 429389.125 4415390.352 60.459 429393.452 4415386.397 60.443 429400.186 4415380.172 60.406 429404.572 4415376.123 60.378 429411.121 4415370.094 60.334 429415.464 4415366.082 60.316 429422.061 4415360.027 60.287 429426.383 4415356.015 60.286 429433.134 4415349.783 60.243 429437.394 4415345.824 60.217 429444.067 4415339.545 60.197 429448.249 4415335.464 60.187 429454.502 4415328.979 60.156 429455.783 4415327.603 60.149 429455.901 4415327.481 60.151 429458.658 4415324.448 60.137 429464.435 4415317.831 60.124 429468.311 4415313.168 60.114 429473.820 4415306.168 60.095 429477.358 4415301.369 60.071 429482.452 4415294.208 60.053 429485.846 4415289.196 60.053 429490.680 4415281.588 60.049 429493.795 4415276.408 60.036 429498.180 4415268.579 59.985 429500.953 4415263.319 59.972 429504.989 4415255.174 59.952 429507.485 4415249.852 59.970 429511.189 4415241.515 59.994 429513.446 4415236.214 60.001 429516.937 4415227.796 60.019 429519.237 4415222.269 60.002 429522.631 4415214.092 60.004 429524.989 4415208.495 60.031 429528.469 4415200.086 60.052 429530.847 4415194.373 60.044 429534.210 4415186.243 60.037 429536.509 4415180.710 60.049 429539.884 4415172.593 60.087 429542.309 4415166.808 60.110 429545.765 4415158.649 60.141 429548.085 4415153.298 60.164 429551.772 4415145.068 60.200 429554.370 4415139.571 60.219 429558.437 4415131.281 60.260 429561.176 4415125.912 60.264 429565.365 4415117.899 60.289 429568.249 4415112.617 60.311 429572.597 4415104.914 60.339 429575.637 4415099.727 60.356 429578.695 4415094.644 60.367 429580.544 4415091.582 60.375 429582.826 4415087.920 60.390,1,
107,429638.661 4415033.581 60.583 429636.086 4415036.614 60.578 429634.817 4415038.112 60.568 429632.177 4415041.274 60.542 429630.916 4415042.784 60.539 429628.332 4415045.889 60.550 429627.147 4415047.344 60.552 429624.492 4415050.566 60.542 429623.335 4415051.988 60.537 429620.811 4415055.138 60.514 429619.572 4415056.718 60.505 429617.151 4415059.809 60.488 429615.989 4415061.344 60.477 429613.982 4415063.971 60.472,1,
108,429809.695 4414894.367 60.056 429805.327 4414897.318 60.096 429798.696 4414901.818 60.149 429793.617 4414905.323 60.179 429786.115 4414910.290 60.261 429781.145 4414913.627 60.291 429774.148 4414918.492 60.338 429769.292 4414921.677 60.386 429761.670 4414926.878 60.456 429756.712 4414930.210 60.479 429749.197 4414935.311 60.531 429744.384 4414938.584 60.530 429736.835 4414943.734 60.551 429731.981 4414947.027 60.578 429724.763 4414951.841 60.601 429719.794 4414955.231 60.615 429712.171 4414960.475 60.643 429707.154 4414963.996 60.648 429700.178 4414969.316 60.666 429695.611 4414973.007 60.671 429688.623 4414978.792 60.718 429684.143 4414982.687 60.679 429677.326 4414988.687 60.686 429672.807 4414992.839 60.699 429666.231 4414999.022 60.701 429661.928 4415003.191 60.708 429655.632 4415009.470 60.699 429651.321 4415013.929 60.680 429645.405 4415020.362 60.674 429641.271 4415025.039 60.660 429635.476 4415031.796 60.636 429631.552 4415036.435 60.621 429625.837 4415043.292 60.589 429624.749 4415044.617 60.584 429623.659 4415045.939 60.578 429621.994 4415047.974 60.570 429616.455 4415054.862 60.539 429612.662 4415059.742 60.520 429611.079 4415061.837 60.522,1,
109,429603.838 4415057.224 60.495 429607.366 4415052.608 60.516 429612.980 4415045.556 60.544 429616.821 4415040.905 60.551 429622.482 4415034.102 60.578 429626.517 4415029.305 60.607 429632.174 4415022.578 60.600 429635.989 4415018.107 60.608 429641.885 4415011.465 60.633 429646.018 4415007.073 60.648 429652.333 4415000.704 60.673 429656.546 4414996.518 60.657 429662.829 4414990.468 60.650 429667.357 4414986.255 60.646 429674.034 4414980.215 60.638 429678.415 4414976.364 60.630 429685.436 4414970.387 60.590 429689.419 4414967.105 60.592 429696.820 4414961.068 60.633 429701.260 4414957.502 60.633 429707.566 4414952.411 60.605 429712.398 4414948.405 60.589 429719.040 4414942.705 60.593 429723.521 4414938.822 60.580 429730.215 4414932.966 60.537 429734.843 4414928.861 60.506 429741.571 4414922.857 60.473 429746.068 4414919.008 60.443 429749.976 4414915.868 60.205 429753.589 4414913.404 60.161 429759.058 4414910.778 60.086 429766.198 4414907.859 60.249 429772.163 4414905.689 60.237 429780.053 4414902.828 60.243,1,
110,429613.479 4415039.405 60.493 429616.144 4415036.219 60.502 429617.339 4415034.755 60.507 429620.035 4415031.563 60.532 429621.143 4415030.189 60.544 429623.792 4415026.993 60.569 429625.092 4415025.437 60.573 429627.615 4415022.405 60.542 429628.998 4415020.803 60.539 429631.412 4415017.919 60.553 429632.785 4415016.335 60.557 429635.482 4415013.202 60.565 429636.643 4415011.895 60.565 429639.475 4415008.755 60.575,1,
111,429765.453 4414904.809 60.203 429771.616 4414902.539 60.185 429779.245 4414899.443 60.179,1,
112,429795.186 4414697.082 59.693 429802.286 4414732.573 59.558 429803.737 4414739.398 59.508 429805.164 4414746.891 59.490 429806.359 4414752.652 59.553 429808.090 4414761.431 59.681 429809.268 4414767.206 59.801 429811.018 4414775.923 59.951 429812.216 4414781.582 60.047 429814.264 4414791.905 60.118 429815.165 4414796.309 60.106 429816.946 4414805.119 60.082 429818.110 4414810.890 60.057 429819.885 4414819.745 60.026,1,
113,429819.442 4414857.302 59.688 429818.330 4414851.735 59.782 429816.528 4414842.867 59.921 429815.329 4414837.242 59.963 429813.617 4414828.410 60.011 429812.407 4414822.623 60.026 429810.662 4414813.795 60.044 429809.513 4414807.995 60.064 429807.672 4414799.142 60.107 429806.501 4414793.415 60.121 429804.789 4414784.626 60.036 429803.589 4414778.822 59.967 429801.780 4414770.035 59.835 429800.649 4414764.405 59.711 429798.888 4414755.651 59.552 429797.731 4414749.913 59.459 429796.053 4414741.409 59.514 429795.278 4414737.618 59.525 429794.878 4414735.725 59.537 429793.537 4414729.132 59.566 429792.307 4414723.011 59.595 429790.496 4414713.919 59.650 429789.138 4414707.585 59.662 429787.121 4414697.064 59.665 429786.219 4414692.674 59.674 429784.983 4414686.502 59.692 429784.069 4414682.005 59.697 429782.846 4414676.037 59.707 429782.003 4414671.738 59.716 429780.814 4414665.915 59.724 429780.018 4414661.955 59.735 429778.829 4414656.005 59.741 429777.974 4414651.695 59.746 429776.578 4414644.867 59.742 429775.776 4414640.909 59.736 429774.563 4414634.912 59.736 429774.115 4414632.733 59.718 429773.677 4414630.556 59.712 429773.661 4414630.527 59.700 429772.442 4414624.432 59.689 429771.615 4414620.300 59.709 429770.461 4414614.533 59.694 429769.662 4414610.631 59.699 429768.529 4414604.459 59.696,1,
114,429765.646 4414550.857 59.553 429766.296 4414554.273 59.562 429767.443 4414559.839 59.579 429768.285 4414563.803 59.587 429769.441 4414569.657 59.605 429770.165 4414573.126 59.621 429771.356 4414579.196 59.645 429772.116 4414582.969 59.648 429773.351 4414589.070 59.665 429774.140 4414592.890 59.685 429775.333 4414598.889 59.693 429776.139 4414602.725 59.712 429777.296 4414608.771 59.720 429778.005 4414612.500 59.709 429779.419 4414618.942 59.725 429780.172 4414622.674 59.738 429781.324 4414628.486 59.793 429782.336 4414633.142 59.745 429783.533 4414639.305 59.744 429783.909 4414641.261 59.741 429784.293 4414643.212 59.740 429784.337 4414643.481 59.739 429785.685 4414649.954 59.742,1,
115,429734.003 4414376.669 58.524 429734.953 4414381.367 58.524 429735.632 4414384.834 58.543 429736.841 4414390.789 58.588 429737.631 4414394.896 58.611 429738.946 4414401.135 58.626 429739.728 4414404.984 58.660 429740.621 4414409.637 58.692 429741.625 4414414.161 58.732 429742.829 4414420.464 58.759 429743.708 4414424.835 58.787 429744.564 4414430.950 58.831 429745.006 4414435.440 58.855 429745.543 4414442.314 58.832 429745.943 4414445.628 58.907 429746.516 4414452.613 58.963 429747.015 4414456.884 59.016 429747.867 4414462.847 59.057,1,
116,429740.344 4414448.125 58.974 429739.445 4414443.802 58.956 429738.104 4414437.220 58.932 429737.228 4414432.849 58.909 429736.029 4414427.049 58.875,1,
117,429749.483 4414511.182 59.246 429747.369 4414500.759 59.246 429746.549 4414496.725 59.231 429745.389 4414490.652 59.179 429744.495 4414486.453 59.160 429743.254 4414480.228 59.129 429742.379 4414475.986 59.098 429741.120 4414469.695 59.060 429740.479 4414466.519 59.037 429739.060 4414459.497 58.999 429738.190 4414455.274 58.977 429736.904 4414448.873 58.930 429736.016 4414444.480 58.907 429734.707 4414438.004 58.875 429733.833 4414433.702 58.853 429732.534 4414427.306 58.818,1,
118,430151.639 4414664.403 58.200 430147.196 4414666.893 58.184,1,
119,430084.547 4414272.641 57.563 430079.929 4414275.136 57.563 430075.606 4414277.130 57.594 430074.227 4414277.795 57.606 430069.476 4414279.978 57.638 430063.192 4414282.811 57.581 430059.631 4414284.331 57.609 430054.082 4414286.556 57.631 430050.542 4414287.882 57.633 430046.162 4414289.474 57.643 430040.749 4414291.375 57.670 430025.552 4414295.833 57.763 430021.663 4414296.871 57.767 430014.948 4414298.417 57.790 430012.064 4414299.169 57.789 430007.188 4414300.299 57.661,1,
120,430119.903 4414272.289 57.397 430122.108 4414274.045 57.397 430124.927 4414276.325 57.393 430129.859 4414280.430 57.412 430132.774 4414282.946 57.428 430137.230 4414287.001 57.457 430140.027 4414289.666 57.470 430144.296 4414293.843 57.529 430147.064 4414296.637 57.548 430151.357 4414301.143 57.601 430154.020 4414304.089 57.638 430157.996 4414308.655 57.673 430160.539 4414311.690 57.701 430164.288 4414316.357 57.729 430166.732 4414319.504 57.755 430170.320 4414324.319 57.809 430172.614 4414327.552 57.853 430175.957 4414332.414 57.894 430178.172 4414335.747 57.921 430181.415 4414340.993 57.976 430183.436 4414344.354 57.990 430186.387 4414349.564 58.053 430188.305 4414353.048 58.080 430191.076 4414358.317 58.128 430192.910 4414362.105 58.159 430195.441 4414367.336 58.202 430197.091 4414371.030 58.224 430199.451 4414376.510 58.257 430200.926 4414380.191 58.288 430203.091 4414385.836 58.337 430204.285 4414389.282 58.352 430205.821 4414393.775 58.389,1,
121,430224.562 4414474.601 58.831 430226.837 4414485.670 58.831 430227.999 4414491.405 58.831 430229.766 4414500.302 58.831 430230.901 4414506.002 58.831 430232.668 4414514.907 58.723 430233.794 4414520.605 58.690 430235.654 4414529.668 58.630 430236.768 4414535.402 58.592 430238.290 4414543.112 58.543,1,
122,430209.414 4414439.186 58.528 430208.806 4414436.119 58.528 430207.983 4414432.292 58.499 430206.646 4414426.340 58.454 430205.772 4414422.576 58.421 430204.302 4414416.630 58.377 430203.304 4414412.805 58.354 430201.677 4414406.968 58.300 430200.731 4414403.701 58.271 430198.426 4414396.837 58.264 430197.379 4414393.282 58.234 430195.462 4414388.008 58.131 430194.318 4414384.526 58.117 430191.760 4414378.567 58.058 430190.361 4414375.229 58.101 430187.655 4414369.381 58.064 430186.125 4414365.863 58.026 430183.653 4414360.967 57.993 430181.635 4414357.109 57.962 430178.737 4414351.887 57.851 430176.915 4414348.748 57.809 430173.307 4414342.825 57.750 430171.480 4414339.930 57.729 430168.134 4414334.871 57.692 430165.874 4414331.630 57.654 430162.314 4414326.903 57.683 430159.925 4414323.653 57.651 430156.062 4414318.581 57.543 430153.790 4414315.828 57.501 430149.719 4414311.106 57.453 430147.561 4414308.661 57.432 430144.451 4414305.243 57.385,1,
123,429929.014 4414316.285 57.991 429925.389 4414316.953 57.991 429922.717 4414317.497 58.001 429916.832 4414318.675 58.028 429913.224 4414319.416 58.021 429906.813 4414320.765 58.046 429903.035 4414321.484 58.060 429896.977 4414322.734 58.080 429893.604 4414323.370 58.088 429887.262 4414324.661 58.107 429883.668 4414325.362 58.115 429877.438 4414326.667 58.136 429874.176 4414327.334 58.154 429868.067 4414328.554 58.174 429864.160 4414329.277 58.193 429858.100 4414330.562 58.207 429854.353 4414331.350 58.214 429838.334 4414334.589 58.265 429834.820 4414335.305 58.281 429829.036 4414336.376 58.314 429825.004 4414337.345 58.319 429818.969 4414338.534 58.346 429815.057 4414339.264 58.360 429809.828 4414340.392 58.386 429805.176 4414341.198 58.410 429799.468 4414342.509 58.410,1,
124,430230.962 4414620.711 58.429 430226.426 4414623.336 58.446 430217.868 4414627.869 58.273 430212.833 4414630.636 58.272 430204.852 4414635.047 58.293 430199.946 4414637.717 58.281 430191.697 4414642.265 58.278 430186.172 4414645.272 58.266 430178.654 4414649.419 58.253 430173.286 4414652.384 58.249 430165.476 4414656.686 58.240 430160.294 4414659.563 58.223 430152.457 4414663.934 58.198 430147.246 4414666.867 58.185 430139.390 4414671.385 58.156 430134.243 4414674.383 58.133 430126.397 4414679.061 58.129 430121.287 4414682.144 58.116 430113.723 4414686.797 58.096 430108.622 4414690.020 58.086 430101.135 4414694.794 58.074 430096.052 4414698.112 58.083 430088.417 4414703.149 58.078 430083.518 4414706.417 58.072 430075.921 4414711.539 58.064 430071.453 4414714.537 58.072 430063.872 4414719.699 58.074 430059.074 4414722.954 58.072 430051.696 4414727.966 58.106 430046.762 4414731.320 58.131 430039.308 4414736.391 58.147 430034.510 4414739.659 58.185 430027.160 4414744.683 58.212 430023.339 4414747.247 58.229 430016.970 4414751.602 58.374 430014.850 4414753.092 58.391 430008.741 4414757.181 58.304 430003.866 4414760.499 58.327 429996.331 4414765.673 58.372 429991.435 4414768.987 58.407 429984.078 4414773.991 58.587 429979.022 4414777.495 58.628 429971.627 4414782.490 58.568 429966.701 4414785.845 58.614 429959.342 4414790.866 58.775 429954.267 4414794.306 58.811 429946.802 4414799.409 58.875 429942.057 4414802.631 58.918 429934.680 4414807.687 58.987 429929.591 4414811.143 59.048 429922.254 4414816.163 59.123 429917.103 4414819.671 59.173 429909.933 4414824.583 59.238 429904.894 4414828.017 59.274 429897.445 4414833.003 59.338 429892.457 4414836.363 59.387 429884.596 4414841.202 59.350 429879.798 4414844.416 59.384 429872.199 4414849.545 59.461 429867.135 4414853.005 59.507 429860.224 4414857.704 59.570,1,
125,429886.284 4414843.586 59.527 429873.825 4414852.063 59.527 429868.878 4414855.477 59.563 429861.860 4414860.204 59.528,1,
126,429750.480 4414341.234 58.607 429754.362 4414340.558 58.607 429760.510 4414339.423 58.487 429764.880 4414338.584 58.573 429770.398 4414337.368 58.443 429774.366 4414336.533 58.426 429780.112 4414335.292 58.403 429784.056 4414334.581 58.383 429789.622 4414333.240 58.359 429793.856 4414332.540 58.347 429799.415 4414331.482 58.320 429803.573 4414330.538 58.311 429809.409 4414329.403 58.273 429813.303 4414328.534 58.248 429819.368 4414327.455 58.237 429823.360 4414326.692 58.233 429829.005 4414325.484 58.212 429832.633 4414324.765 58.201 429838.607 4414323.568 58.258 429842.997 4414322.644 58.245 429848.525 4414321.571 58.145 429852.542 4414320.673 58.127 429858.236 4414319.487 58.119 429862.238 4414318.732 58.184 429869.215 4414317.322 58.078 429871.863 4414316.765 58.063 429878.010 4414315.599 58.073,1,
127,430035.622 4414296.673 57.824 430033.250 4414297.329 57.825 430030.597 4414298.156 57.825 430027.722 4414298.853 57.816 430024.994 4414299.640 57.816 430021.730 4414300.452 57.811 430018.870 4414301.154 57.821 430015.690 4414301.953 57.766,1,
128,430239.008 4414586.896 58.208 430237.864 4414580.853 58.177 430236.113 4414572.114 58.162 430234.959 4414566.396 58.245 430233.206 4414557.622 58.434 430233.189 4414557.552 58.393 430232.290 4414553.079 58.440 430230.303 4414543.093 58.542 430229.398 4414538.527 58.592 430227.283 4414527.956 58.662 430226.212 4414522.598 58.698 430224.350 4414513.279 58.765 430223.271 4414507.783 58.783 430221.469 4414498.751 58.832 430220.359 4414493.195 58.830 430217.398 4414478.835 58.830,1,
129,429845.447 4414858.095 59.719 429847.604 4414856.688 59.719 429852.758 4414853.200 59.684 429859.936 4414848.263 59.573 429865.058 4414844.768 59.519 429872.538 4414839.688 59.452 429877.386 4414836.363 59.414 429884.932 4414831.303 59.398 429889.803 4414827.984 59.349 429897.532 4414822.641 59.223 429902.456 4414819.223 59.181 429909.831 4414814.304 59.177 429914.683 4414811.032 59.132 429922.293 4414805.835 59.076 429927.186 4414802.517 59.011 429934.285 4414797.494 58.863 429939.593 4414794.023 58.824 429947.152 4414788.865 58.743 429951.950 4414785.593 58.701 429959.501 4414780.432 58.647 429964.544 4414777.014 58.608 429971.825 4414772.014 58.548 429976.867 4414768.590 58.514 429984.425 4414763.524 58.520 429989.336 4414760.214 58.482 429996.794 4414755.100 58.433 430001.686 4414751.788 58.399 430009.901 4414746.190 58.361 430013.971 4414743.419 58.343 430014.085 4414743.368 58.336 430023.342 4414737.028 58.303 430028.712 4414733.421 58.253 430036.843 4414727.843 58.231 430041.585 4414724.659 58.218 430049.121 4414719.496 58.190 430054.049 4414716.146 58.178 430061.485 4414711.073 58.171 430066.377 4414707.763 58.167 430073.864 4414702.701 58.165 430078.765 4414699.391 58.157 430086.323 4414694.321 58.157 430091.270 4414691.047 58.156 430098.850 4414686.176 58.161 430103.944 4414682.955 58.177 430111.633 4414678.122 58.185 430116.696 4414675.037 58.196 430124.452 4414670.339 58.200 430129.419 4414667.396 58.208 430137.496 4414662.732 58.224 430142.503 4414659.820 58.243 430150.328 4414655.400 58.271 430155.533 4414652.513 58.297 430163.399 4414648.175 58.326 430168.636 4414645.363 58.331 430176.736 4414641.054 58.343 430181.859 4414638.386 58.357 430190.030 4414634.176 58.382 430195.141 4414631.436 58.382 430202.525 4414627.371 58.384,1,
130,429820.021 4414341.856 58.291 429815.836 4414342.598 58.299 429810.058 4414343.922 58.323 429806.089 4414344.640 58.355 429800.126 4414345.925 58.373,1,
131,429749.699 4414337.952 58.654 429753.581 4414337.276 58.654 429759.729 4414336.141 58.534 429764.099 4414335.302 58.620 429769.617 4414334.086 58.490 429773.585 4414333.251 58.473 429779.331 4414332.010 58.450 429783.275 4414331.299 58.430 429788.841 4414329.958 58.406 429793.075 4414329.258 58.394 429798.634 4414328.200 58.367 429802.792 4414327.256 58.358 429808.628 4414326.121 58.320 429812.522 4414325.252 58.295 429818.587 4414324.173 58.284 429822.579 4414323.410 58.280 429828.224 4414322.202 58.259 429831.852 4414321.483 58.248 429837.826 4414320.286 58.305 429842.216 4414319.362 58.292 429847.744 4414318.289 58.192 429851.761 4414317.391 58.174 429857.455 4414316.205 58.166 429861.457 4414315.450 58.231 429868.434 4414314.040 58.125 429871.082 4414313.483 58.110 429877.339 4414312.148 58.105,1,
132,429651.694 4414357.190 58.167 429657.411 4414356.043 58.132 429662.604 4414354.912 58.139,1,
133,429434.843 4414405.115 59.300 429440.618 4414403.931 59.274 429448.942 4414402.212 59.244 429454.717 4414401.028 59.218 429463.883 4414399.122 59.135 429469.658 4414397.938 59.109 429478.479 4414396.173 59.067 429484.300 4414394.981 59.038 429493.049 4414393.201 58.997 429498.902 4414392.012 58.978 429507.654 4414390.258 58.940 429513.566 4414389.049 58.910 429522.312 4414387.298 58.864 429528.151 4414386.136 58.834 429536.843 4414384.362 58.800 429542.673 4414383.198 58.779 429551.641 4414381.396 58.736 429557.439 4414380.225 58.711 429566.340 4414378.417 58.665 429572.230 4414377.204 58.625 429580.953 4414375.470 58.593 429586.791 4414374.274 58.562 429595.751 4414372.473 58.511 429596.726 4414372.273 58.505 429597.701 4414372.073 58.501 429601.487 4414371.299 58.477 429610.426 4414369.480 58.436 429616.138 4414368.349 58.409 429624.999 4414366.558 58.361 429630.716 4414365.411 58.326 429639.466 4414363.383 58.276 429645.183 4414362.236 58.241 429652.508 4414360.494 58.202 429658.225 4414359.347 58.167 429662.953 4414358.320 58.149,1,
134,429653.107 4414363.931 58.274 429658.824 4414362.784 58.239 429663.819 4414361.786 58.192,1,
135,429703.336 4414361.776 58.292 429697.687 4414362.958 58.314 429688.803 4414364.622 58.182 429683.126 4414365.824 58.129 429674.074 4414367.685 58.183 429668.397 4414368.887 58.130 429659.711 4414370.576 58.276 429654.034 4414371.778 58.223 429645.098 4414373.551 58.355 429639.421 4414374.753 58.302 429630.619 4414376.477 58.340 429624.850 4414377.616 58.377 429615.880 4414379.399 58.420 429610.112 4414380.537 58.457 429601.273 4414382.390 58.526 429595.505 4414383.529 58.563 429586.697 4414385.308 58.560 429580.908 4414386.477 58.598 429572.050 4414388.262 58.643 429566.241 4414389.431 58.670 429557.460 4414391.203 58.714 429551.572 4414392.381 58.741 429542.770 4414394.156 58.781 429536.931 4414395.336 58.806 429528.074 4414397.107 58.850 429522.401 4414398.245 58.869 429513.523 4414400.051 58.913 429507.658 4414401.229 58.941 429498.847 4414403.012 58.969 429493.039 4414404.189 59.004 429484.413 4414405.949 59.045 429478.517 4414407.124 59.073 429473.906 4414408.073 59.099,1,
136,429704.128 4414365.112 58.323 429698.451 4414366.314 58.270 429689.629 4414368.095 58.151 429683.952 4414369.297 58.098 429674.821 4414371.037 58.129 429669.144 4414372.239 58.076 429660.294 4414373.945 58.220 429654.617 4414375.147 58.167 429645.798 4414376.929 58.286 429640.121 4414378.131 58.233,1,
137,429021.029 4415016.828 62.749 429024.876 4415008.321 62.749 429027.184 4415002.766 62.708 429030.582 4414994.249 62.722 429032.583 4414988.713 62.655 429035.565 4414980.146 62.638 429037.336 4414974.487 62.585 429039.906 4414965.876 62.617 429041.382 4414960.232 62.524 429043.601 4414951.467 62.500 429044.777 4414945.777 62.455 429046.548 4414936.675 62.398 429047.548 4414930.955 62.358 429048.856 4414921.981 62.337 429049.607 4414916.348 62.318 429050.501 4414907.339 62.275 429051.070 4414901.398 62.243 429051.884 4414892.429 62.205 429052.418 4414886.587 62.174 429053.202 4414877.654 62.174 429053.766 4414871.695 62.123 429054.661 4414862.670 62.074 429055.367 4414856.872 62.046 429056.784 4414848.067 62.003 429057.979 4414842.063 61.977 429059.798 4414833.300 61.937 429061.296 4414827.702 61.906 429063.833 4414819.004 61.884 429065.645 4414813.276 61.852 429068.732 4414804.890 61.825 429070.990 4414799.358 61.791 429074.607 4414791.185 61.738 429077.090 4414785.792 61.712 429081.110 4414777.663 61.664 429083.832 4414772.401 61.633 429088.405 4414764.547 61.603 429091.516 4414759.723 61.582 429096.643 4414752.077 61.542 429099.852 4414747.249 61.511 429104.829 4414739.938 61.470 429108.227 4414734.863 61.443 429113.223 4414727.450 61.402 429116.566 4414722.489 61.366 429121.600 4414715.078 61.326 429124.923 4414710.121 61.296 429129.887 4414702.764 61.280 429133.275 4414697.792 61.213 429138.274 4414690.375 61.178 429141.630 4414685.402 61.140 429146.656 4414678.010 61.102 429149.963 4414673.078 61.089 429154.953 4414665.682 61.061 429158.325 4414660.721 61.034 429163.408 4414653.242 60.991 429166.059 4414649.258 60.954 429172.190 4414640.250 60.919 429175.279 4414635.728 60.888 429180.178 4414628.368 60.869 429183.343 4414623.649 60.830 429188.431 4414616.183 60.784 429191.709 4414611.264 60.729 429196.882 4414603.667 60.718 429200.065 4414598.937 60.680 429205.115 4414591.458 60.657 429208.441 4414586.553 60.618 429213.445 4414579.047 60.582 429216.759 4414574.144 60.553 429221.851 4414566.623 60.523 429225.156 4414561.791 60.499 429230.235 4414554.245 60.461 429233.588 4414549.299 60.422 429238.638 4414541.827 60.383 429241.949 4414536.936 60.352 429246.971 4414529.449 60.308 429250.261 4414524.609 60.276 429255.288 4414517.151 60.251 429258.670 4414512.275 60.216 429263.952 4414504.920 60.170 429267.515 4414500.346 60.140 429273.292 4414493.296 60.098 429277.173 4414488.835 60.066 429283.438 4414482.145 60.059 429287.495 4414478.083 60.017 429293.990 4414471.761 59.972 429298.395 4414467.749 59.951 429305.251 4414461.901 59.902 429309.853 4414458.224 59.877 429317.119 4414452.714 59.870 429321.930 4414449.341 59.809 429329.422 4414444.216 59.763 429333.940 4414441.363 59.734 429342.099 4414436.603 59.710 429347.224 4414433.729 59.665 429355.314 4414429.511 59.636 429360.638 4414427.060 59.609 429368.980 4414423.418 59.574 429374.108 4414421.279 59.530 429382.811 4414418.090 59.520,1,
138,430040.152 4414284.043 57.492 430048.532 4414281.094 57.492 430053.984 4414278.892 57.492 430060.764 4414276.061 57.492 430066.480 4414273.540 57.492 430070.636 4414271.446 57.492 430074.582 4414269.345 57.492 430079.249 4414266.780 57.492,1,
139,430185.446 4414633.311 58.344 430200.850 4414624.929 58.344,1,
